# R = 150 (µm)
# T = 300 (K)
# model = Drude
# omegap = 9 (eV)
# gamma = 0.035 (eV)

# L (nm), F' (N/m), F'/F'pfa
88.875, 0.0079618799375517, 0.999735004801158
93.5, 0.00668955237675052, 0.99971911689624
98.125, 0.00566486385575968, 0.99970343226646
102.75, 0.00483152379663623, 0.999687929267678
107.375, 0.00414775398131019, 0.999672592256166
112, 0.00358213482782018, 0.999657410842721
116.625, 0.0031107503713796, 0.999642379631804
121.25, 0.00271519388860866, 0.999627486559828
125.875, 0.00238115407485928, 0.999612738481553
130.5, 0.00209739879496553, 0.999598116563159
135.125, 0.00185503574553997, 0.999583634546137
139.75, 0.00164696785933231, 0.999569270833768
144.375, 0.0014674882577596, 0.999555040792246
149, 0.00131197552872552, 0.999540925384991
153.625, 0.00117666270042662, 0.999526931759768
158.25, 0.00105846027154289, 0.999513063115733
162.875, 0.000954819656460856, 0.999499299024967
167.5, 0.000863627051799852, 0.999485649561407
172.125, 0.000783120203419426, 0.99947211750465
176.75, 0.000711822788643969, 0.999458689854528
181.375, 0.00064849234797159, 0.999445361853664
186, 0.00059207868541138, 0.999432150322651
190.625, 0.000541690411636479, 0.999419039424095
195.25, 0.00049656797504189, 0.999406019880071
199.875, 0.000456061748166014, 0.999393108468647
204.5, 0.000419614115408451, 0.999380298641519
209.125, 0.000386744818191965, 0.999367574183564
213.75, 0.000357038892328934, 0.999354944698477
218.375, 0.000330136669383134, 0.99934242658772
223, 0.000305725458668652, 0.999329969651721
227.625, 0.000283532689463705, 0.99931763523544
232.25, 0.00026332004982615, 0.999305364005595
236.875, 0.000244878692819125, 0.999293200709107
241.5, 0.000228025085872657, 0.999281101655824
246.125, 0.000212597593143606, 0.999269118945722
250.75, 0.000198453484919324, 0.999257176646545
255.375, 0.000185466502603952, 0.999245375878953
260, 0.000173524643969217, 0.999233595643911
264.625, 0.000162528423931644, 0.999221947317011
269.25, 0.000152389226011549, 0.999210326668902
273.875, 0.000143028026769518, 0.999198847694426
278.5, 0.00013437416549524, 0.999187420431388
283.125, 0.000126364379678138, 0.999176009042384
287.75, 0.000118941950012023, 0.999164796804681
292.375, 0.000112055862877372, 0.999153543538023
297, 0.000105660256239709, 0.999142447326057
301.625, 9.97137497729076e-05, 0.999131343579449
306.25, 9.4179021134297e-05, 0.999120435023282
310.875, 8.90222798790347e-05, 0.99910945246691
315.5, 8.42129755162436e-05, 0.999098642056
320.125, 7.97233729497497e-05, 0.99908787117322
324.75, 7.55283049061399e-05, 0.999077208995819
329.375, 7.16048732863676e-05, 0.999066518542102
334, 6.7932253550461e-05, 0.99905596895664
338.625, 6.44914469661111e-05, 0.999045500168019
343.25, 6.12651161842879e-05, 0.999035080369214
347.875, 5.82374217646082e-05, 0.999024719520468
352.5, 5.53938721087378e-05, 0.999014404172508
357.125, 5.27211976957632e-05, 0.999004169487449
361.75, 5.02072322975223e-05, 0.998994057303534
366.375, 4.78407996491182e-05, 0.998983915232643
371, 4.5611645085443e-05, 0.998973885334115
375.625, 4.351032785203e-05, 0.998963918076618
380.25, 4.15281599476981e-05, 0.998954049956137
384.875, 3.96571289063764e-05, 0.998944171794566
389.5, 3.78898502145445e-05, 0.998934334372723
394.125, 3.62195100943781e-05, 0.998924712845486
398.75, 3.46397944412909e-05, 0.998915002111802
403.375, 3.31448806676217e-05, 0.998905397406646
408, 3.17293708596035e-05, 0.998895873219377
412.625, 3.03882611677476e-05, 0.998886319546851
417.25, 2.91169233807609e-05, 0.998877022420947
421.875, 2.79110408160056e-05, 0.998867527866828
426.5, 2.67666316029867e-05, 0.998858360244944
431.125, 2.56799654956898e-05, 0.99884896441589
435.75, 2.46476005940318e-05, 0.998839866778497
440.375, 2.36663089751773e-05, 0.998830638041334
445, 2.27331040997243e-05, 0.998821710054638
449.625, 2.18451796878797e-05, 0.998812544579552
454.25, 2.09999391355158e-05, 0.998803569592622
458.875, 2.01949496631078e-05, 0.998794819316874
463.5, 1.94279280284583e-05, 0.998785783331297
468.125, 1.86967603888672e-05, 0.998776999220069
472.75, 1.79994580031858e-05, 0.998768414566307
477.375, 1.73341517986891e-05, 0.998759529135432
482, 1.66991097887126e-05, 0.998750905179314
486.625, 1.60926968215029e-05, 0.998742404503108
491.25, 1.55133775790319e-05, 0.998733743089875
495.875, 1.49597245592418e-05, 0.998725478749336
500.5, 1.44303761331087e-05, 0.998716725980572
505.125, 1.39240817286702e-05, 0.998708562163156
509.75, 1.34396399747415e-05, 0.998700217813291
514.375, 1.29759337068077e-05, 0.99869182281561
519, 1.25319129416143e-05, 0.998683604619094
523.625, 1.2106585971519e-05, 0.998675534310016
528.25, 1.16990150560401e-05, 0.998667261416168
532.875, 1.13083269339559e-05, 0.998659322694318
537.5, 1.09336855546878e-05, 0.998651130964371
542.125, 1.05743156427354e-05, 0.998643309657469
546.75, 1.0229472161763e-05, 0.998635220253554
551.375, 9.89846315639753e-06, 0.99862733014208
556, 9.58063015734239e-06, 0.998619635365634
560.625, 9.27534655498296e-06, 0.998611662271253
565.25, 8.98203089205427e-06, 0.99860411985162
569.875, 8.70011822259073e-06, 0.998596051271906
574.5, 8.42909501665613e-06, 0.998588923128885
579.125, 8.16844620965124e-06, 0.998580774392863
583.75, 7.91771635040577e-06, 0.998573580663767
588.375, 7.67644643171664e-06, 0.998565886108539
593, 7.44421830190891e-06, 0.998558399206917
597.625, 7.22063023701996e-06, 0.998551157781973
602.25, 7.00529682724742e-06, 0.998543585179427
606.875, 6.79786036968653e-06, 0.998536245954719
611.5, 6.59797727317797e-06, 0.998529138251342
616.125, 6.40531764017855e-06, 0.998521700997243
620.75, 6.21957534467557e-06, 0.998514506184359
625.375, 6.04045429048771e-06, 0.99850731453474
630, 5.86767615932705e-06, 0.998500414736911
634.625, 5.70097051479595e-06, 0.998493111927693
639.25, 5.54008781567117e-06, 0.998486064035517
643.875, 5.38478717651482e-06, 0.998479346731964
648.5, 5.23483316637098e-06, 0.998471879614678
653.125, 5.09001669543876e-06, 0.99846548196378
657.75, 4.95011993866858e-06, 0.998458336633916
662.375, 4.81494978162886e-06, 0.998451512046502
667, 4.68431659252702e-06, 0.998444968773425
671.625, 4.55803640875319e-06, 0.998437981830339
676.25, 4.43594042529644e-06, 0.998431286264708
680.875, 4.31786304940411e-06, 0.998424621396675
685.5, 4.20364727553651e-06, 0.998417962835594
690.125, 4.09314487533149e-06, 0.998411696629582
694.75, 3.98620745639142e-06, 0.998404526001761
699.375, 3.88270717338738e-06, 0.998398657256102
704, 3.78250428262257e-06, 0.998391796241331
708.625, 3.68548094632101e-06, 0.998385776756875
713.25, 3.59151060445931e-06, 0.998378685758881
717.875, 3.50048819965617e-06, 0.99837305890007
722.5, 3.41229414425915e-06, 0.998366003478324
727.125, 3.32683381809328e-06, 0.998360405973585
731.75, 3.24399987007454e-06, 0.998354162153018
736.375, 3.16369663008195e-06, 0.99834729206836
741, 3.08583756649204e-06, 0.998341468785106
745.625, 3.01033141324931e-06, 0.99833568833654
750.25, 2.93709177704263e-06, 0.99832925134691
754.875, 2.86603971954574e-06, 0.998322768196677
759.5, 2.79710254958306e-06, 0.9983179533474
764.125, 2.73019447775057e-06, 0.998310739037972
768.75, 2.66525564043295e-06, 0.998305230593382
773.375, 2.60221286042294e-06, 0.998299726361115
778, 2.54099728109745e-06, 0.998292968377824
782.625, 2.48155367948849e-06, 0.99828800525718
787.25, 2.42381371102284e-06, 0.998281743168116
791.875, 2.36772378229963e-06, 0.998275996962151
796.5, 2.31322678000545e-06, 0.998270251165896
801.125, 2.26026915832454e-06, 0.998264549853047
805.75, 2.20879919618026e-06, 0.99825882167826
810.375, 2.15876862926093e-06, 0.998253663574472
815, 2.1101266457464e-06, 0.998247619278008
819.625, 2.06282932718959e-06, 0.9982415491101
824.25, 2.01683575457448e-06, 0.998237015632803
828.875, 1.97209719735004e-06, 0.998230923191755
833.5, 1.92857744200077e-06, 0.998225542376541
838.125, 1.88623550381645e-06, 0.998220018455463
842.75, 1.84503516761877e-06, 0.998215205299016
847.375, 1.80493554541397e-06, 0.998208672764504
852, 1.76590908352679e-06, 0.998204550875401
856.625, 1.7279133285911e-06, 0.998197987593036
861.25, 1.69092436835383e-06, 0.998193914392415
865.875, 1.65490340616639e-06, 0.998188009243727
870.5, 1.61982460965425e-06, 0.998182857028938
875.125, 1.5856574907507e-06, 0.998177656344194
879.75, 1.55237406584832e-06, 0.998172473717909
884.375, 1.51994735662662e-06, 0.998167384662265
889, 1.48835102722373e-06, 0.998162257680648
893.625, 1.4575599144392e-06, 0.998157121641134
898.25, 1.42755088447626e-06, 0.998152808202239
902.875, 1.39829629046234e-06, 0.998146390541385
907.5, 1.36978047368358e-06, 0.998142836540227
912.125, 1.34197454034687e-06, 0.998137105463847
916.75, 1.31486168769014e-06, 0.998132338640428
921.375, 1.28841899770343e-06, 0.998126644099617
926, 1.26263089052752e-06, 0.998123223483776
930.625, 1.23747257987611e-06, 0.998117576361144
935.25, 1.21292955204756e-06, 0.99811275573904
939.875, 1.18898406623592e-06, 0.998108839221647
944.5, 1.16561501982362e-06, 0.998102520290095
949.125, 1.14281142709658e-06, 0.998098562114656
953.75, 1.12055448788432e-06, 0.998094662587565
958.375, 1.09882588372238e-06, 0.9980882870368
963, 1.07761725034985e-06, 0.998085448460072
967.625, 1.05690626253366e-06, 0.998078990651011
972.25, 1.03668663272647e-06, 0.998076174435857
976.875, 1.01693808155514e-06, 0.998070655706966
981.5, 9.97651370013643e-07, 0.998066196013075
986.125, 9.78812700030751e-07, 0.998061774479017
