# DFT calculations
#
# W. S. M. Werner, K. Glantschnig, C. Ambrosch-Draxl. Optical constants and
# inelastic electron-scattering data for 17 elemental metals, J. Phys Chem Ref.
# Data 38, 1013-1092 (2009)
#
# E (eV)      lambda (m)    eps1           eps2          n             k
7.050e+01,    1.759e-02,    +6.669e-01,    1.580e-01,    8.223e-01,    9.610e-02
7.000e+01,    1.771e-02,    +6.899e-01,    1.860e-01,    8.380e-01,    1.110e-01
6.950e+01,    1.784e-02,    +7.170e-01,    1.479e-01,    8.512e-01,    8.690e-02
6.900e+01,    1.797e-02,    +6.919e-01,    1.361e-01,    8.358e-01,    8.140e-02
6.850e+01,    1.810e-02,    +6.760e-01,    1.521e-01,    8.273e-01,    9.190e-02
6.800e+01,    1.823e-02,    +6.740e-01,    1.651e-01,    8.270e-01,    9.980e-02
6.750e+01,    1.837e-02,    +6.810e-01,    1.799e-01,    8.323e-01,    1.081e-01
6.700e+01,    1.851e-02,    +7.049e-01,    1.799e-01,    8.463e-01,    1.063e-01
6.650e+01,    1.864e-02,    +6.949e-01,    1.591e-01,    8.390e-01,    9.480e-02
6.600e+01,    1.878e-02,    +6.861e-01,    1.581e-01,    8.337e-01,    9.480e-02
6.550e+01,    1.893e-02,    +6.820e-01,    1.569e-01,    8.312e-01,    9.440e-02
6.500e+01,    1.907e-02,    +6.739e-01,    1.540e-01,    8.262e-01,    9.320e-02
6.450e+01,    1.922e-02,    +6.701e-01,    1.511e-01,    8.237e-01,    9.170e-02
6.400e+01,    1.937e-02,    +6.520e-01,    1.481e-01,    8.126e-01,    9.110e-02
6.350e+01,    1.953e-02,    +6.360e-01,    1.550e-01,    8.033e-01,    9.650e-02
6.300e+01,    1.968e-02,    +6.240e-01,    1.651e-01,    7.967e-01,    1.036e-01
6.250e+01,    1.984e-02,    +6.221e-01,    1.770e-01,    7.965e-01,    1.111e-01
6.200e+01,    2.000e-02,    +6.130e-01,    1.770e-01,    7.909e-01,    1.119e-01
6.150e+01,    2.016e-02,    +5.990e-01,    1.870e-01,    7.831e-01,    1.194e-01
6.100e+01,    2.032e-02,    +5.889e-01,    1.960e-01,    7.777e-01,    1.260e-01
6.050e+01,    2.049e-02,    +5.760e-01,    2.110e-01,    7.712e-01,    1.368e-01
6.000e+01,    2.066e-02,    +5.749e-01,    2.290e-01,    7.726e-01,    1.482e-01
5.950e+01,    2.084e-02,    +5.759e-01,    2.281e-01,    7.731e-01,    1.475e-01
5.900e+01,    2.101e-02,    +5.559e-01,    2.380e-01,    7.618e-01,    1.562e-01
5.850e+01,    2.119e-02,    +5.401e-01,    2.620e-01,    7.551e-01,    1.735e-01
5.800e+01,    2.138e-02,    +5.480e-01,    2.899e-01,    7.642e-01,    1.897e-01
5.750e+01,    2.156e-02,    +5.570e-01,    2.959e-01,    7.706e-01,    1.920e-01
5.700e+01,    2.175e-02,    +5.430e-01,    2.900e-01,    7.611e-01,    1.905e-01
5.650e+01,    2.194e-02,    +5.000e-01,    3.279e-01,    7.409e-01,    2.213e-01
5.600e+01,    2.214e-02,    +5.110e-01,    4.041e-01,    7.624e-01,    2.650e-01
5.550e+01,    2.234e-02,    +6.400e-01,    4.409e-01,    8.418e-01,    2.619e-01
5.500e+01,    2.254e-02,    +6.121e-01,    3.711e-01,    8.148e-01,    2.277e-01
5.450e+01,    2.275e-02,    +5.971e-01,    3.900e-01,    8.094e-01,    2.409e-01
5.400e+01,    2.296e-02,    +6.001e-01,    4.220e-01,    8.166e-01,    2.584e-01
5.350e+01,    2.318e-02,    +6.369e-01,    4.461e-01,    8.410e-01,    2.652e-01
5.300e+01,    2.339e-02,    +7.001e-01,    4.349e-01,    8.730e-01,    2.491e-01
5.250e+01,    2.362e-02,    +7.560e-01,    3.470e-01,    8.910e-01,    1.947e-01
5.200e+01,    2.384e-02,    +7.000e-01,    3.190e-01,    8.571e-01,    1.861e-01
5.150e+01,    2.407e-02,    +6.619e-01,    3.050e-01,    8.339e-01,    1.829e-01
5.100e+01,    2.431e-02,    +6.511e-01,    3.131e-01,    8.287e-01,    1.889e-01
5.050e+01,    2.455e-02,    +6.320e-01,    2.870e-01,    8.143e-01,    1.762e-01
5.000e+01,    2.480e-02,    +6.079e-01,    2.990e-01,    8.017e-01,    1.865e-01
4.950e+01,    2.505e-02,    +6.019e-01,    2.980e-01,    7.980e-01,    1.867e-01
4.900e+01,    2.530e-02,    +5.760e-01,    2.940e-01,    7.819e-01,    1.880e-01
4.850e+01,    2.556e-02,    +5.471e-01,    2.819e-01,    7.624e-01,    1.849e-01
4.800e+01,    2.583e-02,    +4.880e-01,    3.050e-01,    7.292e-01,    2.091e-01
4.750e+01,    2.610e-02,    +4.860e-01,    3.490e-01,    7.363e-01,    2.370e-01
4.700e+01,    2.638e-02,    +4.750e-01,    3.519e-01,    7.301e-01,    2.410e-01
4.650e+01,    2.666e-02,    +4.700e-01,    3.790e-01,    7.327e-01,    2.586e-01
4.600e+01,    2.695e-02,    +4.420e-01,    3.860e-01,    7.172e-01,    2.691e-01
4.550e+01,    2.725e-02,    +4.080e-01,    4.289e-01,    7.071e-01,    3.033e-01
4.500e+01,    2.755e-02,    +4.140e-01,    4.699e-01,    7.212e-01,    3.258e-01
4.450e+01,    2.786e-02,    +4.209e-01,    4.920e-01,    7.309e-01,    3.366e-01
4.400e+01,    2.818e-02,    +4.401e-01,    5.420e-01,    7.544e-01,    3.592e-01
4.350e+01,    2.850e-02,    +4.410e-01,    5.229e-01,    7.500e-01,    3.486e-01
4.300e+01,    2.883e-02,    +4.131e-01,    5.599e-01,    7.446e-01,    3.760e-01
4.250e+01,    2.917e-02,    +4.600e-01,    6.091e-01,    7.821e-01,    3.894e-01
4.200e+01,    2.952e-02,    +4.651e-01,    5.850e-01,    7.786e-01,    3.757e-01
4.150e+01,    2.988e-02,    +4.820e-01,    6.179e-01,    7.955e-01,    3.884e-01
4.100e+01,    3.024e-02,    +5.019e-01,    6.100e-01,    8.037e-01,    3.795e-01
4.050e+01,    3.061e-02,    +5.220e-01,    5.570e-01,    8.017e-01,    3.474e-01
4.000e+01,    3.100e-02,    +4.691e-01,    5.630e-01,    7.752e-01,    3.631e-01
3.950e+01,    3.139e-02,    +4.440e-01,    5.811e-01,    7.666e-01,    3.790e-01
3.900e+01,    3.179e-02,    +4.220e-01,    5.970e-01,    7.593e-01,    3.931e-01
3.850e+01,    3.220e-02,    +4.340e-01,    6.260e-01,    7.732e-01,    4.048e-01
3.800e+01,    3.263e-02,    +3.840e-01,    6.070e-01,    7.424e-01,    4.088e-01
3.750e+01,    3.306e-02,    +3.400e-01,    7.079e-01,    7.501e-01,    4.719e-01
3.700e+01,    3.351e-02,    +3.811e-01,    7.400e-01,    7.789e-01,    4.750e-01
3.650e+01,    3.397e-02,    +3.960e-01,    7.689e-01,    7.940e-01,    4.842e-01
3.600e+01,    3.444e-02,    +4.300e-01,    7.621e-01,    8.078e-01,    4.717e-01
3.550e+01,    3.492e-02,    +4.280e-01,    7.919e-01,    8.149e-01,    4.859e-01
3.500e+01,    3.542e-02,    +4.541e-01,    7.530e-01,    8.165e-01,    4.611e-01
3.450e+01,    3.594e-02,    +4.271e-01,    7.590e-01,    8.056e-01,    4.711e-01
3.400e+01,    3.647e-02,    +4.070e-01,    7.391e-01,    7.908e-01,    4.673e-01
3.350e+01,    3.701e-02,    +3.291e-01,    8.001e-01,    7.727e-01,    5.177e-01
3.300e+01,    3.757e-02,    +4.039e-01,    8.280e-01,    8.140e-01,    5.086e-01
3.250e+01,    3.815e-02,    +3.570e-01,    7.629e-01,    7.744e-01,    4.926e-01
3.200e+01,    3.875e-02,    +2.790e-01,    7.920e-01,    7.479e-01,    5.295e-01
3.150e+01,    3.936e-02,    +2.120e-01,    8.189e-01,    7.273e-01,    5.630e-01
3.100e+01,    4.000e-02,    +1.149e-01,    8.650e-01,    7.027e-01,    6.155e-01
3.050e+01,    4.065e-02,    -2.193e-02,    1.014e+00,    7.044e-01,    7.198e-01
3.000e+01,    4.133e-02,    +1.495e-02,    1.265e+00,    8.000e-01,    7.906e-01
2.950e+01,    4.203e-02,    +1.892e-01,    1.446e+00,    9.076e-01,    7.966e-01
2.900e+01,    4.275e-02,    +3.309e-01,    1.436e+00,    9.499e-01,    7.559e-01
2.850e+01,    4.350e-02,    +3.629e-01,    1.543e+00,    9.869e-01,    7.817e-01
2.800e+01,    4.428e-02,    +5.900e-01,    1.614e+00,    1.074e+00,    7.512e-01
2.750e+01,    4.509e-02,    +8.949e-01,    1.384e+00,    1.128e+00,    6.137e-01
2.700e+01,    4.592e-02,    +7.829e-01,    1.113e+00,    1.035e+00,    5.375e-01
2.650e+01,    4.679e-02,    +5.900e-01,    1.032e+00,    9.431e-01,    5.472e-01
2.600e+01,    4.769e-02,    +5.220e-01,    1.161e+00,    9.474e-01,    6.128e-01
2.550e+01,    4.862e-02,    +4.850e-01,    1.084e+00,    9.145e-01,    5.927e-01
2.500e+01,    4.959e-02,    +3.959e-01,    1.105e+00,    8.859e-01,    6.236e-01
2.450e+01,    5.061e-02,    +3.729e-01,    1.152e+00,    8.899e-01,    6.473e-01
2.400e+01,    5.166e-02,    +2.910e-01,    1.093e+00,    8.432e-01,    6.481e-01
2.350e+01,    5.276e-02,    +5.204e-02,    1.111e+00,    7.630e-01,    7.281e-01
2.300e+01,    5.391e-02,    -6.909e-02,    1.333e+00,    7.955e-01,    8.378e-01
2.250e+01,    5.510e-02,    -1.639e-01,    1.513e+00,    8.240e-01,    9.181e-01
2.200e+01,    5.636e-02,    -2.930e-01,    1.690e+00,    8.433e-01,    1.002e+00
2.150e+01,    5.767e-02,    -3.281e-01,    2.084e+00,    9.438e-01,    1.104e+00
2.100e+01,    5.904e-02,    -2.459e-01,    2.502e+00,    1.065e+00,    1.175e+00
2.050e+01,    6.048e-02,    +2.062e-01,    2.691e+00,    1.205e+00,    1.116e+00
2.000e+01,    6.199e-02,    +4.100e-01,    2.595e+00,    1.232e+00,    1.053e+00
1.950e+01,    6.358e-02,    +9.239e-01,    3.245e+00,    1.466e+00,    1.107e+00
1.900e+01,    6.525e-02,    +1.224e+00,    2.851e+00,    1.471e+00,    9.692e-01
1.850e+01,    6.702e-02,    +1.333e+00,    2.627e+00,    1.463e+00,    8.980e-01
1.800e+01,    6.888e-02,    +1.549e+00,    1.981e+00,    1.425e+00,    6.949e-01
1.750e+01,    7.085e-02,    +1.265e+00,    1.878e+00,    1.328e+00,    7.069e-01
1.700e+01,    7.293e-02,    +1.123e+00,    1.856e+00,    1.283e+00,    7.233e-01
1.650e+01,    7.514e-02,    +9.789e-01,    1.915e+00,    1.251e+00,    7.654e-01
1.600e+01,    7.749e-02,    +9.569e-01,    2.013e+00,    1.262e+00,    7.975e-01
1.550e+01,    7.999e-02,    +9.180e-01,    2.002e+00,    1.249e+00,    8.014e-01
1.500e+01,    8.266e-02,    +8.220e-01,    2.050e+00,    1.231e+00,    8.327e-01
1.450e+01,    8.551e-02,    +7.489e-01,    2.157e+00,    1.231e+00,    8.759e-01
1.400e+01,    8.856e-02,    +7.100e-01,    2.302e+00,    1.249e+00,    9.217e-01
1.350e+01,    9.184e-02,    +7.188e-01,    2.480e+00,    1.285e+00,    9.652e-01
1.300e+01,    9.537e-02,    +9.359e-01,    2.663e+00,    1.371e+00,    9.713e-01
1.250e+01,    9.919e-02,    +9.761e-01,    2.418e+00,    1.339e+00,    9.032e-01
1.200e+01,    1.033e-01,    +8.679e-01,    2.629e+00,    1.348e+00,    9.748e-01
1.150e+01,    1.078e-01,    +1.026e+00,    2.460e+00,    1.359e+00,    9.054e-01
1.100e+01,    1.127e-01,    +7.099e-01,    2.411e+00,    1.270e+00,    9.496e-01
1.050e+01,    1.181e-01,    +5.860e-01,    2.532e+00,    1.262e+00,    1.003e+00
1.000e+01,    1.240e-01,    +2.181e-01,    2.715e+00,    1.213e+00,    1.119e+00
9.500e+00,    1.305e-01,    -4.479e-02,    3.166e+00,    1.249e+00,    1.267e+00
9.000e+00,    1.378e-01,    -2.706e-02,    3.736e+00,    1.362e+00,    1.372e+00
8.500e+00,    1.459e-01,    +1.971e-01,    4.113e+00,    1.469e+00,    1.400e+00
8.000e+00,    1.550e-01,    +7.487e-02,    4.448e+00,    1.504e+00,    1.479e+00
7.500e+00,    1.653e-01,    +8.619e-01,    5.182e+00,    1.749e+00,    1.482e+00
7.000e+00,    1.771e-01,    +8.730e-01,    5.129e+00,    1.743e+00,    1.471e+00
6.500e+00,    1.907e-01,    +1.892e+00,    5.251e+00,    1.933e+00,    1.358e+00
6.000e+00,    2.066e-01,    +1.382e+00,    4.384e+00,    1.729e+00,    1.268e+00
5.500e+00,    2.254e-01,    +8.290e-01,    4.688e+00,    1.672e+00,    1.402e+00
5.000e+00,    2.480e-01,    +6.082e-01,    4.916e+00,    1.668e+00,    1.474e+00
4.750e+00,    2.610e-01,    +1.500e-01,    4.966e+00,    1.600e+00,    1.552e+00
4.500e+00,    2.755e-01,    -3.531e-01,    5.329e+00,    1.579e+00,    1.687e+00
4.250e+00,    2.917e-01,    -7.883e-01,    5.930e+00,    1.611e+00,    1.840e+00
4.000e+00,    3.100e-01,    -8.750e-01,    6.684e+00,    1.713e+00,    1.951e+00
3.750e+00,    3.306e-01,    -8.600e-01,    7.164e+00,    1.783e+00,    2.009e+00
3.500e+00,    3.542e-01,    -8.732e-01,    7.627e+00,    1.844e+00,    2.068e+00
3.250e+00,    3.815e-01,    -8.043e-01,    7.923e+00,    1.892e+00,    2.094e+00
3.000e+00,    4.133e-01,    -9.918e-01,    7.826e+00,    1.857e+00,    2.107e+00
2.750e+00,    4.509e-01,    -1.594e+00,    7.866e+00,    1.793e+00,    2.193e+00
2.500e+00,    4.959e-01,    -2.222e+00,    7.642e+00,    1.694e+00,    2.256e+00
2.250e+00,    5.510e-01,    -3.447e+00,    6.621e+00,    1.417e+00,    2.336e+00
2.000e+00,    6.199e-01,    -6.685e+00,    4.448e+00,    8.199e-01,    2.712e+00
1.750e+00,    7.085e-01,    -1.347e+01,    3.246e+00,    4.391e-01,    3.696e+00
1.500e+00,    8.266e-01,    -2.332e+01,    3.240e+00,    3.347e-01,    4.841e+00
1.250e+00,    9.919e-01,    -3.908e+01,    4.353e+00,    3.476e-01,    6.261e+00
1.000e+00,    1.240e+00,    -6.716e+01,    7.925e+00,    4.827e-01,    8.209e+00
7.500e-01,    1.653e+00,    -1.262e+02,    1.825e+01,    8.101e-01,    1.126e+01
5.000e-01,    2.480e+00,    -2.896e+02,    5.993e+01,    1.752e+00,    1.711e+01
