# optical data by Diego Dalvit, omegap = 9eV
# T = 295K
# R = 10500nm
#
# F_PR = -pi³*hbar*c*R/(360*L³)
#
# order of finite difference formula: 8
# stepsize: 1
#
# L (nm), F_Drude/F_PR, F_PFA_Drude/F_PR, F_plasma/F_PR, F_PFA_plasma/F_PR, 1-F_Drude/F_PFA_Drude, 1-F_Plasma/F_PFA_Plasma
66, 0.447302776709, 0.449274652955, 0.452482746241, 0.4546986393, 0.004389021801, 0.00487332238979
70, 0.459169553766, 0.461320191713, 0.464907764156, 0.467336885067, 0.00466192025738, 0.00519779411345
74, 0.470426410572, 0.472757776166, 0.476737664008, 0.479384223318, 0.004931416703, 0.00552074762154
78, 0.481118397112, 0.48363238885, 0.488016190093, 0.49088430978, 0.00519814593949, 0.00584276097214
82, 0.491286125475, 0.493984108004, 0.498782776064, 0.501876022916, 0.00546167879676, 0.00616336846263
86, 0.500965754101, 0.503848866824, 0.509072515363, 0.512394209351, 0.00572217764813, 0.00648269228532
90, 0.510189935555, 0.513259056502, 0.518917096703, 0.522470274967, 0.00597967226858, 0.00680072806869
94, 0.518988226517, 0.522244012566, 0.528345203098, 0.532132660249, 0.00623422379323, 0.00711750552827
98, 0.527387499258, 0.530830412351, 0.537382913719, 0.541407228149, 0.00648590022766, 0.00743306372874
102, 0.53541227662, 0.53904260376, 0.546054030308, 0.550317584551, 0.00673476848513, 0.00774744322577
106, 0.543085006137, 0.546902880262, 0.554380343742, 0.558885345815, 0.00698089964986, 0.00806069099292
110, 0.550426296688, 0.554431713433, 0.562381863999, 0.567130364251, 0.00722436442139, 0.00837285490399
114, 0.557455122936, 0.56164795065, 0.570077018703, 0.575070920336, 0.00746522391811, 0.00868397523871
118, 0.56418898191, 0.568568985049, 0.577482804463, 0.582723887469, 0.00770355621674, 0.00899411045006
122, 0.570644058228, 0.575210902745, 0.584614947441, 0.590104874104, 0.00793942620802, 0.00930330675748
126, 0.57683535236, 0.581588610429, 0.591488027534, 0.597228347727, 0.0081728871288, 0.00961160034421
130, 0.582776773122, 0.58771594746, 0.598115567136, 0.604107743047, 0.00840401618978, 0.00991905165962
134, 0.588481264185, 0.593605784259, 0.60451015446, 0.610755557172, 0.00863286748527, 0.0102256993617
138, 0.593960877468, 0.599270109293, 0.610683514018, 0.617183433683, 0.00885949715031, 0.0105315847939
142, 0.599226849248, 0.604720106319, 0.616646580091, 0.623402237309, 0.00908396630694, 0.0108367548491
146, 0.6042896806, 0.609966222966, 0.622409574896, 0.629422120092, 0.00930632246919, 0.0111412436464
150, 0.60915918404, 0.615018232295, 0.627982053096, 0.635252580998, 0.00952662530411, 0.0114450977772
154, 0.61384455281, 0.619885288044, 0.633372969315, 0.640902518978, 0.00974492434348, 0.0117483539852
158, 0.618354405702, 0.624575973871, 0.638590721198, 0.646380281164, 0.00996126721003, 0.0120510482649
162, 0.622696834571, 0.629098348238, 0.643643195463, 0.651693705627, 0.0101756961926, 0.0123532114774
166, 0.626879440159, 0.633459984806, 0.64853780238, 0.656850160373, 0.0103882562511, 0.0126548770087
170, 0.630909363005, 0.637668008808, 0.653281505389, 0.661856579155, 0.0105990040425, 0.0129560905437
174, 0.634793342426, 0.641729130611, 0.657880879094, 0.666719493239, 0.0108079684305, 0.013256870745
178, 0.638537724083, 0.64564967574, 0.66234211571, 0.671445060828, 0.0110151866002, 0.0135572448885
182, 0.642148482698, 0.649435612567, 0.666671046937, 0.676039093302, 0.0112207118439, 0.0138572553838
186, 0.64563127394, 0.65309257729, 0.670873195018, 0.680507080274, 0.0114245722724, 0.0141569214119
190, 0.648991437031, 0.656625897112, 0.674953774577, 0.684854211053, 0.0116268031995, 0.0144562686723
194, 0.652234021788, 0.660040611511, 0.678917719006, 0.689085395906, 0.0118274384743, 0.0147553219967
198, 0.655363800774, 0.6633414912, 0.682769691955, 0.693205284037, 0.0120265210784, 0.0150541150253
202, 0.658385322509, 0.666533056425, 0.686514140074, 0.697218281275, 0.0122240507607, 0.0153526398958
206, 0.661302828674, 0.669619592901, 0.69015520954, 0.701128565704, 0.0124201327375, 0.0156509899903
210, 0.664120417877, 0.672605167183, 0.693696909519, 0.704940102729, 0.0126147548658, 0.0159491468373
214, 0.666841996741, 0.675493640529, 0.697143062713, 0.708656657908, 0.0128078834038, 0.016247071225
218, 0.669471168581, 0.678288681777, 0.700497193693, 0.712281809871, 0.0129996466604, 0.0165448787472
222, 0.672011454767, 0.680993779257, 0.70376274987, 0.715818961746, 0.013190024291, 0.0168425433248
226, 0.674466170405, 0.683612251812, 0.706942976835, 0.719271351845, 0.0133790484042, 0.0171400890339
230, 0.676838473189, 0.686147259024, 0.710040967015, 0.722642063578, 0.0135667463698, 0.0174375353965
234, 0.67913136543, 0.688601810704, 0.71305966119, 0.725934034643, 0.0137531518602, 0.0177349081858
238, 0.681347723687, 0.690978775695, 0.716001878089, 0.729150065581, 0.0139382747295, 0.018032210532
242, 0.683490271231, 0.693280890075, 0.718870286561, 0.732292827715, 0.0141221530609, 0.0183294723735
246, 0.685561618568, 0.695510764774, 0.721667445729, 0.735364870689, 0.0143048054892, 0.0186267056068
250, 0.687564259863, 0.697670892681, 0.724395801394, 0.738368628836, 0.0144862469176, 0.0189239180758
254, 0.689500562917, 0.699763655269, 0.727057675816, 0.741306428373, 0.0146665124361, 0.0192211371857
258, 0.691372807627, 0.701791328848, 0.729655305793, 0.7441804929, 0.0148456112122, 0.0195183658338
262, 0.693183159402, 0.703756090038, 0.732190816118, 0.746992949131, 0.0150235724926, 0.0198156261444
266, 0.694933695585, 0.705660021605, 0.734666245892, 0.749745832276, 0.0152004161937, 0.0201129312561
270, 0.696626400771, 0.707505117218, 0.737083543403, 0.752441090376, 0.0153761664501, 0.0204102981201
274, 0.69826319364, 0.709293286327, 0.739444593162, 0.755080589722, 0.0155508206546, 0.0207077188481
278, 0.699845875028, 0.711026358276, 0.741751163744, 0.757666118772, 0.0157244286624, 0.0210052352003
282, 0.701376200949, 0.712706086902, 0.744004980511, 0.760199391735, 0.0158969961977, 0.0213028468582
286, 0.702855853313, 0.714334154227, 0.746207696526, 0.762682053187, 0.0160685315781, 0.0216005563417
290, 0.704286430126, 0.715912173854, 0.748360882495, 0.765115681258, 0.016239064166, 0.0218983863141
294, 0.705669475214, 0.717441694868, 0.750466056393, 0.767501790476, 0.0164086081686, 0.0221963444178
298, 0.707006469167, 0.718924204861, 0.752524674317, 0.769841835947, 0.016577179644, 0.0224944408333
302, 0.708298824135, 0.720361132682, 0.754538125239, 0.772137215169, 0.0167448075687, 0.0227926974432
306, 0.709547920627, 0.721753851893, 0.756507767855, 0.774389271915, 0.0169114875311, 0.023091105092
310, 0.710755063718, 0.723103682806, 0.758434886471, 0.776599297779, 0.0170772454645, 0.0233896828907
314, 0.711921505855, 0.724411895652, 0.76032071382, 0.778768535553, 0.0172421102862, 0.0236884528471
318, 0.71304848062, 0.725679712358, 0.762166464949, 0.780898181248, 0.0174060698178, 0.0239873990597
322, 0.714137135062, 0.726908309411, 0.763973269312, 0.782989385712, 0.0175691681932, 0.0242865570679
326, 0.715188616468, 0.728098819386, 0.765742257523, 0.78504325788, 0.0177313883425, 0.0245859067811
330, 0.716203985921, 0.729252333562, 0.767474474817, 0.787060865403, 0.0178927746139, 0.024885484017
334, 0.71718429885, 0.73036990322, 0.769170961675, 0.789043237848, 0.018053323818, 0.0251852816421
338, 0.718130546498, 0.731452542052, 0.770832695181, 0.790991367242, 0.0182130689114, 0.0254853249934
342, 0.719043706653, 0.732501227242, 0.772460639732, 0.792906210329, 0.0183720109788, 0.0257856103674
346, 0.719924737932, 0.733516901715, 0.774055741306, 0.794788690476, 0.0185301303227, 0.0260861149863
350, 0.720774488105, 0.734500475005, 0.775618835435, 0.79663969818, 0.0186875126252, 0.0263869134226
354, 0.721593860105, 0.735452825382, 0.777150813749, 0.798460093655, 0.018844125412, 0.0266879711031
358, 0.722383695048, 0.736374800514, 0.77865250673, 0.800250706937, 0.0189999786192, 0.0269892922554
362, 0.723144796619, 0.737267219506, 0.780124707702, 0.802012340446, 0.0191550939913, 0.0272908927211
366, 0.723877952558, 0.738130873456, 0.781568194722, 0.803745768993, 0.0193094766935, 0.0275927726488
370, 0.724583894153, 0.738966526959, 0.782983690176, 0.805451741504, 0.0194631722572, 0.0278949689594
374, 0.725263375631, 0.739774919431, 0.784371939167, 0.807130982503, 0.019616160832, 0.0281974596801
378, 0.725917113062, 0.740556765562, 0.785733649938, 0.808784192209, 0.0197684406933, 0.0285002383735
382, 0.72654575228, 0.741312757067, 0.787069460742, 0.810412048039, 0.019920073742, 0.0288033567037
386, 0.727149978375, 0.742043562939, 0.788380049058, 0.812015205931, 0.0200710380202, 0.029106790981
390, 0.72773045442, 0.742749830699, 0.789666071346, 0.813594300173, 0.0202213122887, 0.0294105167924
394, 0.728287750799, 0.743432187507, 0.790928091092, 0.815149945564, 0.020370972582, 0.0297145998776
398, 0.728822468259, 0.744091240416, 0.792166703077, 0.816682736967, 0.0205200267486, 0.0300190426226
402, 0.729335226692, 0.74472757747, 0.793382521663, 0.818193250669, 0.0206684313078, 0.0303238006257
406, 0.729826566577, 0.745341768709, 0.794576081574, 0.819682045607, 0.0208162252318, 0.0306289056433
410, 0.73029702331, 0.745934366308, 0.795747913218, 0.821149662963, 0.0209634301679, 0.0309343727339
414, 0.730747124505, 0.746505905572, 0.796898539211, 0.822596627602, 0.021110055459, 0.0312402063524
418, 0.731177392607, 0.747056905847, 0.798028477478, 0.824023448356, 0.0212560959083, 0.0315463970471
422, 0.73158832642, 0.747587870553, 0.799138222787, 0.825430619226, 0.0214015566106, 0.0318529453912
426, 0.731980366676, 0.748099288186, 0.800228211553, 0.826818619015, 0.0215465002632, 0.0321599040593
430, 0.732354038822, 0.748591632695, 0.801298965856, 0.828187912386, 0.0216908567549, 0.0324672047581
434, 0.732709751736, 0.749065364347, 0.802350890705, 0.829538950869, 0.0218346934589, 0.0327749048263
438, 0.733047946866, 0.749520929728, 0.803384424304, 0.83087217233, 0.0219780158347, 0.0330830047532
442, 0.733369070743, 0.749958762508, 0.804400010191, 0.832188002177, 0.0221208052946, 0.0333914835511
446, 0.733673513322, 0.75037928418, 0.805398035461, 0.833486853476, 0.02226310242, 0.0337003731946
450, 0.733961694381, 0.750782903938, 0.806378917466, 0.83476912802, 0.0224048915722, 0.034009655605
454, 0.734234001678, 0.75117001951, 0.807343041058, 0.836035215765, 0.0225461844748, 0.0343193374707
458, 0.73449079992, 0.751541017378, 0.808290768955, 0.837285495744, 0.0226870085114, 0.0346294387475
462, 0.734732456991, 0.751896273526, 0.80922246693, 0.838520337014, 0.022827372789, 0.0349399636363
466, 0.734959348044, 0.752236153264, 0.810138508003, 0.839740097859, 0.0229672625345, 0.0352508948084
470, 0.735171805315, 0.75256101198, 0.811039222831, 0.840945126961, 0.0231067068173, 0.0355622539109
474, 0.735370179249, 0.752871195298, 0.811924960126, 0.842135763524, 0.0232456974823, 0.0358740297072
478, 0.735554787658, 0.753167039763, 0.812796036317, 0.843312337444, 0.0233842576411, 0.0361862382088
482, 0.735725921747, 0.75344887261, 0.813652740904, 0.844475170264, 0.0235224333162, 0.0364989172506
486, 0.73588395183, 0.753717012454, 0.814495443537, 0.84562457447, 0.023660154049, 0.0368119989319
490, 0.73602916575, 0.753971769392, 0.815324431004, 0.846760854475, 0.0237974475568, 0.0371255039776
494, 0.736161834567, 0.754213445663, 0.816139972807, 0.847884306547, 0.0239343533309, 0.037439463727
498, 0.736282225759, 0.754442335328, 0.816942335545, 0.848995219773, 0.0240709047181, 0.03775390424
502, 0.736390656508, 0.75465872494, 0.817731836413, 0.850093875214, 0.0242070592018, 0.0380687824539
506, 0.736487427317, 0.754862893689, 0.818508775432, 0.851180546918, 0.0243427866524, 0.0383840674042
510, 0.736572703325, 0.755055113555, 0.819273315761, 0.852255501952, 0.024478226685, 0.038699880629
514, 0.736646847165, 0.755235649888, 0.820025821029, 0.853319000461, 0.0246132484942, 0.0390160999736
518, 0.736710048676, 0.755404761084, 0.820766480384, 0.854371296571, 0.0247479409334, 0.039332800999
522, 0.736762561045, 0.755562699181, 0.821495546557, 0.855412637532, 0.0248823005116, 0.0396499764985
526, 0.736804642574, 0.755709709859, 0.822213277793, 0.856443264654, 0.0250163085615, 0.0399676058809
530, 0.736836510562, 0.755846033057, 0.822919891457, 0.857463413315, 0.0251499930712, 0.0402857093625
534, 0.736858392858, 0.755971902512, 0.823615615228, 0.858473312967, 0.0252833598581, 0.040604288116
538, 0.736870522368, 0.756087546394, 0.824300682533, 0.85947318803, 0.0254164006761, 0.0409233306945
542, 0.736873095168, 0.756193187362, 0.82497528882, 0.860463256955, 0.0255491487055, 0.0412428628976
546, 0.736866320767, 0.756289042738, 0.825639644303, 0.861443733159, 0.0256816122854, 0.0415628873694
550, 0.736850435039, 0.756375324572, 0.826293985705, 0.862414824986, 0.02581375793, 0.0418833700837
554, 0.736825572401, 0.756452240179, 0.82693844649, 0.863376735667, 0.025945680024, 0.0422043908206
558, 0.736792038928, 0.756519991706, 0.827573334838, 0.864329664254, 0.026077239193, 0.0425258219583
562, 0.736749936903, 0.756578776684, 0.828198751999, 0.865273804544, 0.026208559362, 0.042847769515
566, 0.736699429846, 0.75662878806, 0.828814862391, 0.866209346063, 0.0263396774327, 0.0431702611398
570, 0.736640804926, 0.756670214233, 0.829421955074, 0.867136473976, 0.0264704608824, 0.0434931755656
574, 0.736574155004, 0.756703239606, 0.830020121943, 0.868055369217, 0.0266010287105, 0.0438166142658
578, 0.736499647569, 0.756728044055, 0.830609531321, 0.868966208422, 0.0267313953084, 0.0441405853638
582, 0.736417510866, 0.756744803509, 0.831190413159, 0.869869164833, 0.0268614895657, 0.0444650221416
586, 0.736327906589, 0.756753689944, 0.831762929989, 0.870764407193, 0.0269913231033, 0.0447899304129
590, 0.736230954247, 0.756754871501, 0.832327201169, 0.871652100703, 0.0271209582219, 0.045115361395
594, 0.736126785376, 0.756748512593, 0.832883358931, 0.872532406907, 0.0272504364055, 0.0454413471203
598, 0.736015626601, 0.756734773921, 0.833431632115, 0.8734054838, 0.0273796685898, 0.0457678047903
602, 0.735897603536, 0.75671381295, 0.833972146694, 0.874271485923, 0.0275086949097, 0.046094765616
606, 0.735772859025, 0.756685783428, 0.8345050463, 0.875130564283, 0.0276375278357, 0.0464222364542
610, 0.735641527933, 0.75665083588, 0.835030466789, 0.875982867187, 0.0277661861335, 0.0467502298644
614, 0.735503803165, 0.7566091176, 0.835548603429, 0.876828539184, 0.0278946075911, 0.0470786863225
618, 0.735359743597, 0.756560772738, 0.836059514267, 0.877667721942, 0.0280229029902, 0.0474076995596
622, 0.735209498448, 0.756505942284, 0.836563349809, 0.878500554134, 0.0281510595565, 0.0477372542654
626, 0.735053254476, 0.756444764572, 0.837060299525, 0.879327171511, 0.0282790113666, 0.0480672875307
630, 0.73489108722, 0.756377374708, 0.837550439134, 0.880147706988, 0.0284068352736, 0.0483978626722
634, 0.734723160206, 0.7563039051, 0.838033933487, 0.880962290531, 0.0285344882505, 0.0487289382361
638, 0.734549577079, 0.756224485416, 0.838510887429, 0.881771049994, 0.0286620028243, 0.049060538521
642, 0.734370463272, 0.756139242655, 0.838981427813, 0.882574110012, 0.0287893791986, 0.0493926591593
646, 0.734185936301, 0.756048301222, 0.839445673344, 0.883371592882, 0.0289166246196, 0.0497253023435
650, 0.733996112751, 0.755951782989, 0.839903741907, 0.884163618422, 0.0290437442338, 0.0500584683567
654, 0.733801102897, 0.755849807279, 0.840355745278, 0.884950304032, 0.0291707481682, 0.0503921616282
658, 0.733601033514, 0.755742491301, 0.840801811241, 0.88573176476, 0.0292976219297, 0.0507263658209
662, 0.733395989539, 0.755629949629, 0.841242026309, 0.88650811336, 0.0294244029111, 0.0510611085995
666, 0.733186078532, 0.755512294666, 0.841676499654, 0.887279460175, 0.0295510957149, 0.0513963892638
670, 0.732971429799, 0.755389636597, 0.842105361636, 0.888045913932, 0.0296776732323, 0.0517321813832
674, 0.732752125459, 0.755262083447, 0.842528695903, 0.888807580652, 0.0298041679597, 0.0520685081416
678, 0.732528284991, 0.755129741135, 0.842946623827, 0.889564564493, 0.0299305601583, 0.0524053481077
682, 0.732299938241, 0.754992713527, 0.843359174827, 0.890316967598, 0.0300569460869, 0.0527427809203
686, 0.732067280186, 0.754851102392, 0.843766547861, 0.891064890146, 0.0301832005463, 0.0530806934581
690, 0.731830403913, 0.754705007841, 0.844168837743, 0.891808430398, 0.0303093310503, 0.0534190875878
694, 0.731589317596, 0.754554527777, 0.844566051444, 0.89254768475, 0.0304354547436, 0.0537580614749
698, 0.73134415539, 0.754399758353, 0.844958326325, 0.893282747773, 0.0305615195488, 0.0540975649295
702, 0.731094988424, 0.754240793909, 0.845345735136, 0.89401371209, 0.0306875545219, 0.05443761801
706, 0.730841950674, 0.754077727022, 0.845728412751, 0.894740669126, 0.0308135030584, 0.0547781698835
710, 0.730585032978, 0.753910648543, 0.846106350158, 0.895463708054, 0.030939496093, 0.0551193280672
714, 0.730324431399, 0.753739647641, 0.846479748692, 0.896182916591, 0.0310653901725, 0.0554609633582
718, 0.73006023105, 0.753564811844, 0.846848693935, 0.896898380842, 0.0311911867765, 0.055803074212
722, 0.729792397833, 0.753386226985, 0.847213150763, 0.897610185338, 0.0313170433793, 0.0561457917903
726, 0.729521105204, 0.753203977619, 0.847573296837, 0.898318413076, 0.0314428403448, 0.0564890082411
730, 0.729246334179, 0.753018146476, 0.847929111787, 0.899023145551, 0.0315687110702, 0.0568328346347
734, 0.728968274632, 0.752828814898, 0.848280790527, 0.899724462795, 0.0316945098188, 0.0571771407753
738, 0.728687023145, 0.75263606277, 0.848628431557, 0.900422443225, 0.0318202127288, 0.057521902145
742, 0.728402503389, 0.752439968555, 0.848971956443, 0.901117164433, 0.0319460238298, 0.0578672896806
746, 0.72811488946, 0.752240609326, 0.849311543915, 0.901808702053, 0.0320718126186, 0.0582131864751
750, 0.727824173838, 0.752038060798, 0.84964718482, 0.90249713059, 0.032197688153, 0.0585596828828
754, 0.727530531492, 0.75183239736, 0.849979059635, 0.903182523248, 0.0323235151256, 0.0589066575622
758, 0.727234059436, 0.751623692105, 0.850307267805, 0.903864951958, 0.0324492600819, 0.0592540777661
762, 0.726934604198, 0.751412016767, 0.850631650611, 0.904544487406, 0.0325752210806, 0.0596021948563
766, 0.726632447956, 0.751197442124, 0.850952498646, 0.905221199061, 0.0327011153001, 0.0599507617269
770, 0.726327636404, 0.750980037451, 0.851269858866, 0.905895155204, 0.032826972512, 0.0602997996222
774, 0.726020125345, 0.750759870941, 0.85158368496, 0.906566422954, 0.0329529408179, 0.0606494313069
778, 0.725709971483, 0.750537009631, 0.851894035262, 0.907235068292, 0.0330790325185, 0.0609996625619
782, 0.725397345097, 0.750311519424, 0.852201085528, 0.907901155915, 0.0332051070548, 0.061350368401
786, 0.725082356319, 0.750083465119, 0.852504948283, 0.908564749973, 0.033331102421, 0.0617014931429
790, 0.724764793387, 0.74985291043, 0.852805405634, 0.909225912991, 0.0334573843671, 0.0620533429049
794, 0.724444950109, 0.749619918015, 0.853102760811, 0.909884706648, 0.033583643258, 0.0624056492241
798, 0.724122919691, 0.749384549493, 0.853397109048, 0.910541191608, 0.0337098353831, 0.0627583717097
802, 0.723798489974, 0.749146865472, 0.853688231261, 0.911195427535, 0.0338363232449, 0.0631118139273
806, 0.72347196427, 0.748906925477, 0.853976440891, 0.911847473123, 0.033962780076, 0.0634656934829
810, 0.723143404249, 0.748664788341, 0.854261801708, 0.912497386109, 0.0340892005194, 0.0638200013363
814, 0.72281259988, 0.748420511658, 0.854544095638, 0.913145223299, 0.0342159406098, 0.0641750360906
818, 0.722479888049, 0.748174152192, 0.854823672823, 0.913791040583, 0.0343426247331, 0.0645304726585
822, 0.722145193774, 0.747925765799, 0.855100453318, 0.914434892958, 0.0344694262498, 0.0648864562107
826, 0.721808558578, 0.74767540744, 0.855374480097, 0.915076834544, 0.0345963617427, 0.0652429962095
830, 0.721470176394, 0.747423131207, 0.855645956155, 0.915716918435, 0.0347232427379, 0.065599926212
834, 0.721129792488, 0.747168990333, 0.855914615611, 0.916355197412, 0.0348504798532, 0.0659575915232
838, 0.720787750795, 0.746913037218, 0.856180815682, 0.916991722887, 0.0349776816325, 0.0663156555152
