# optical data by Diego Dalvit, omegap = 9eV
# T = 295K
# R = 52300nm
#
# F_PR = -pi³*hbar*c*R/(360*L³)
#
# order of finite difference formula: 8
# stepsize: 1
#
# L (nm), F_Drude/F_PR, F_PFA_Drude/F_PR, F_plasma/F_PR, F_PFA_plasma/F_PR, 1-F_Drude/F_PFA_Drude, 1-F_Plasma/F_PFA_Plasma
78, 0.483123973038, 0.48363238885, 0.490282111087, 0.49088430978, 0.00105124434152, 0.0012267629673
82, 0.493438462983, 0.493984108004, 0.501225497429, 0.501876022916, 0.00110458011064, 0.00129618761834
86, 0.503265755206, 0.503848866824, 0.511694502584, 0.512394209351, 0.00115731453829, 0.00136556337793
90, 0.512638307331, 0.513259056502, 0.521720602346, 0.522470274967, 0.00120942662927, 0.00143486176586
94, 0.52158549776, 0.522244012566, 0.531332283711, 0.532132660249, 0.00126093318362, 0.00150409211362
98, 0.530134045621, 0.530830412351, 0.540555455197, 0.541407228149, 0.00131184407176, 0.00157325744326
102, 0.538308336616, 0.53904260376, 0.549413764146, 0.550317584551, 0.0013621690365, 0.00164236148453
106, 0.546130694173, 0.546902880262, 0.557928860401, 0.558885345815, 0.00141192543922, 0.00171141616233
110, 0.553621620876, 0.554431713433, 0.566120631065, 0.567130364251, 0.00146112232989, 0.00178042518908
114, 0.560799989239, 0.56164795065, 0.574007385397, 0.575070920336, 0.00150977388971, 0.00184939787569
118, 0.567683212699, 0.568568985049, 0.58160602049, 0.582723887469, 0.00155789776463, 0.00191834761393
122, 0.574287402403, 0.575210902745, 0.588932173509, 0.590104874104, 0.00160549867373, 0.00198727488369
126, 0.580627481795, 0.581588610429, 0.596000332125, 0.597228347727, 0.0016525919123, 0.00205619108006
130, 0.586717304087, 0.58771594746, 0.602823948302, 0.604107743047, 0.00169919393343, 0.00212510890528
134, 0.592569756421, 0.593605784259, 0.609415539257, 0.610755557172, 0.00174531290915, 0.00219403311069
138, 0.598196840811, 0.599270109293, 0.61578676543, 0.617183433683, 0.00179095947816, 0.0022629710653
142, 0.603609752164, 0.604720106319, 0.621948505881, 0.623402237309, 0.00183614558758, 0.00233193168353
146, 0.608818948832, 0.609966222966, 0.627910926593, 0.629422120092, 0.00188088141762, 0.00240092213318
150, 0.613834212299, 0.615018232295, 0.633683538071, 0.635252580998, 0.00192517869143, 0.00246995128304
154, 0.618664705088, 0.619885288044, 0.639275251269, 0.640902518978, 0.00196904649943, 0.00253902529683
158, 0.623319019339, 0.624575973871, 0.644694424632, 0.646380281164, 0.00201249261089, 0.00260814969318
162, 0.627805216522, 0.629098348238, 0.649948902138, 0.651693705627, 0.00205553188867, 0.00267733672084
166, 0.632130880485, 0.633459984806, 0.655046065106, 0.656850160373, 0.00209816618694, 0.0027465857148
170, 0.636303139682, 0.637668008808, 0.659992853233, 0.661856579155, 0.00214040708719, 0.00281590601397
174, 0.640328708681, 0.641729130611, 0.664795804784, 0.666719493239, 0.00218226329957, 0.00288530405234
178, 0.644213918168, 0.64564967574, 0.669461085758, 0.671445060828, 0.00222374087014, 0.00295478392209
182, 0.647964736596, 0.649435612567, 0.673994510574, 0.676039093302, 0.00226485265518, 0.00302435576308
186, 0.651586807316, 0.65309257729, 0.678401578354, 0.680507080274, 0.00230559958326, 0.00309401912221
190, 0.655085460995, 0.656625897112, 0.682687484636, 0.684854211053, 0.00234598745449, 0.00316377760704
194, 0.65846573431, 0.660040611511, 0.68685713933, 0.689085395906, 0.00238603075895, 0.00323364359334
198, 0.66173239932, 0.6633414912, 0.690915195441, 0.693205284037, 0.0024257368215, 0.00330362253373
202, 0.664889985068, 0.666533056425, 0.694866070199, 0.697218281275, 0.00246510107955, 0.00337370826271
206, 0.667942772305, 0.669619592901, 0.698713939198, 0.701128565704, 0.00250413908638, 0.00344391403292
210, 0.670894830565, 0.672605167183, 0.702462772909, 0.704940102729, 0.00254285381823, 0.00351424157998
214, 0.673750021069, 0.675493640529, 0.706116339318, 0.708656657908, 0.00258125222063, 0.00358469586402
218, 0.676512015018, 0.678288681777, 0.709678221725, 0.712281809871, 0.00261933717513, 0.00365527816446
222, 0.679184295812, 0.680993779257, 0.713151820541, 0.715818961746, 0.00265712184173, 0.00372599965586
226, 0.681770188741, 0.683612251812, 0.716540382802, 0.719271351845, 0.00269460218916, 0.00379685502038
230, 0.684272854039, 0.686147259024, 0.719846994624, 0.722642063578, 0.00273178237039, 0.00386784702285
234, 0.686695293464, 0.688601810704, 0.72307458785, 0.725934034643, 0.0027686788073, 0.00393898984871
238, 0.689040382954, 0.690978775695, 0.726225972275, 0.729150065581, 0.00280528550227, 0.00401027640825
242, 0.691310849149, 0.693280890075, 0.729303811771, 0.732292827715, 0.0028416201195, 0.00408172227158
246, 0.693509313644, 0.695510764774, 0.7323106686, 0.735364870689, 0.00287767095916, 0.00415331519146
250, 0.69563826446, 0.697670892681, 0.735248974452, 0.738368628836, 0.00291344850855, 0.00422506355518
254, 0.697700077738, 0.699763655269, 0.738121052063, 0.741306428373, 0.00294896357597, 0.00429697650985
258, 0.699697029966, 0.701791328848, 0.740929127272, 0.7441804929, 0.00298421880562, 0.0043690551676
262, 0.70163130175, 0.703756090038, 0.74367533252, 0.746992949131, 0.00301921122744, 0.00444129575056
266, 0.70350497131, 0.705660021605, 0.746361700235, 0.749745832276, 0.00305394981928, 0.00451370570603
270, 0.705320032038, 0.707505117218, 0.748990180392, 0.752441090376, 0.00308843728038, 0.00458628592669
274, 0.707078395405, 0.709293286327, 0.751562643065, 0.755080589722, 0.00312267289798, 0.00465903468373
278, 0.708781874909, 0.711026358276, 0.75408086232, 0.757666118772, 0.00315668095897, 0.00473197410282
282, 0.710432243511, 0.712706086902, 0.75654657367, 0.760199391735, 0.00319043632898, 0.00480507891027
286, 0.712031167834, 0.714334154227, 0.758961408004, 0.762682053187, 0.00322396231387, 0.00487836991561
290, 0.713580266375, 0.715912173854, 0.761326949703, 0.765115681258, 0.00325725356312, 0.00495184146496
294, 0.715081082981, 0.717441694868, 0.763644710171, 0.767501790476, 0.00329031878754, 0.00502550007311
298, 0.716535106508, 0.718924204861, 0.765916147322, 0.769841835947, 0.00332315748619, 0.00509934436122
302, 0.717943763712, 0.720361132682, 0.768142658191, 0.772137215169, 0.00335577373657, 0.00517337708783
306, 0.719308423093, 0.721753851893, 0.770325583101, 0.774389271915, 0.00338817561401, 0.00524760473988
310, 0.720630410169, 0.723103682806, 0.772466220601, 0.776599297779, 0.00342035685278, 0.00532202023556
314, 0.721910987624, 0.724411895652, 0.774565807526, 0.778768535553, 0.00345232876939, 0.00539663306209
318, 0.723151376052, 0.725679712358, 0.776625539806, 0.780898181248, 0.00348409396523, 0.00547144499078
322, 0.724352753136, 0.726908309411, 0.778646571527, 0.782989385712, 0.00351565148154, 0.00554645345655
326, 0.72551625162, 0.728098819386, 0.780630012849, 0.78504325788, 0.00354700172172, 0.00562165840744
330, 0.72664294762, 0.729252333562, 0.782576918248, 0.787060865403, 0.00357816605085, 0.00569707801817
334, 0.727733913659, 0.73036990322, 0.784488339538, 0.789043237848, 0.00360911580519, 0.00577268531207
338, 0.728790141084, 0.731452542052, 0.786365248239, 0.790991367242, 0.00363988203584, 0.00584850757523
342, 0.729812617418, 0.732501227242, 0.788208612849, 0.792906210329, 0.003670450948, 0.00592453107149
346, 0.73080227834, 0.733516901715, 0.79001935085, 0.794788690476, 0.00370083275266, 0.00600076433245
350, 0.731760023739, 0.734500475005, 0.791798344571, 0.79663969818, 0.00373104083652, 0.00607721862242
354, 0.732686756609, 0.735452825382, 0.793546480255, 0.798460093655, 0.00376104173819, 0.00615386221503
358, 0.733583294874, 0.736374800514, 0.795264559771, 0.800250706937, 0.00379087611033, 0.00623073134816
362, 0.734450460031, 0.737267219506, 0.796953389122, 0.802012340446, 0.00382054077568, 0.00630782229785
366, 0.73528906255, 0.738130873456, 0.798613763962, 0.803745768993, 0.00385000954249, 0.00638510985545
370, 0.736099841563, 0.738966526959, 0.800246409077, 0.805451741504, 0.00387931698119, 0.0064626248332
374, 0.736883539391, 0.739774919431, 0.801852053293, 0.807130982503, 0.00390845913152, 0.00654036249953
378, 0.737640884972, 0.740556765562, 0.803431412154, 0.808784192209, 0.00393741671857, 0.00661830449462
382, 0.738372551174, 0.741312757067, 0.804985146001, 0.810412048039, 0.00396621515608, 0.00669647255474
386, 0.739079199981, 0.742043562939, 0.806513904596, 0.812015205931, 0.0039948637879, 0.00677487477389
390, 0.739761503992, 0.742749830699, 0.808018348764, 0.813594300173, 0.00402332869492, 0.00685347894883
394, 0.740420064783, 0.743432187507, 0.809499069018, 0.815149945564, 0.00405164421922, 0.00693231543134
398, 0.741055488801, 0.744091240416, 0.810956660749, 0.816682736967, 0.00407981098369, 0.00701138393088
402, 0.741668373984, 0.74472757747, 0.812391711526, 0.818193250669, 0.00410781550053, 0.00709067098628
406, 0.742259287425, 0.745341768709, 0.8138047784, 0.819682045607, 0.00413566153603, 0.00717017926447
410, 0.742828772472, 0.745934366308, 0.81519639497, 0.821149662963, 0.00416336071464, 0.00724991832951
414, 0.743377352745, 0.746505905572, 0.816567075669, 0.822596627602, 0.00419092843478, 0.00732990110964
418, 0.743905579807, 0.747056905847, 0.817917362989, 0.824023448356, 0.00421832127602, 0.0074100869088
422, 0.74441392308, 0.747587870553, 0.819247717656, 0.825430619226, 0.00424558449631, 0.00749051637455
426, 0.744902870397, 0.748099288186, 0.820558619082, 0.826818619015, 0.00427271866078, 0.00757118887784
430, 0.745372912529, 0.748591632695, 0.821850550041, 0.828187912386, 0.00429970096529, 0.00765208263692
434, 0.745824508386, 0.749065364347, 0.823123961908, 0.829538950869, 0.00432653292374, 0.00773319800585
438, 0.746258084325, 0.749520929728, 0.82437927324, 0.83087217233, 0.00435324121536, 0.00781455837155
442, 0.746674075738, 0.749958762508, 0.825616912216, 0.832188002177, 0.00437982317752, 0.0078961604147
446, 0.747072912263, 0.75037928418, 0.826837301749, 0.833486853476, 0.00440626758604, 0.00797799233442
450, 0.74745500865, 0.750782903938, 0.82804084962, 0.83476912802, 0.00443256668584, 0.00806004699207
454, 0.747820741782, 0.75117001951, 0.829227926191, 0.836035215765, 0.00445874787521, 0.00814234788792
458, 0.748170487098, 0.751541017378, 0.830398900843, 0.837285495744, 0.00448482544783, 0.00822490648187
462, 0.748504656288, 0.751896273526, 0.831554179047, 0.838520337014, 0.004510751492, 0.0083076792052
466, 0.748823590546, 0.752236153264, 0.832694096062, 0.839740097859, 0.00453655770636, 0.00839069351878
470, 0.749127648321, 0.75256101198, 0.833819005115, 0.840945126961, 0.00456223961169, 0.00847394392074
474, 0.749417163267, 0.752871195298, 0.834929233696, 0.842135763524, 0.00458781269891, 0.0085574442265
478, 0.749692472946, 0.753167039763, 0.836025114414, 0.843312337444, 0.00461327518853, 0.00864119105802
482, 0.749953919056, 0.75344887261, 0.83710698428, 0.844475170264, 0.00463860745, 0.00872516592979
486, 0.750201802538, 0.753717012454, 0.838175138825, 0.84562457447, 0.00466383252344, 0.008809388787
490, 0.750436449011, 0.753971769392, 0.83922989899, 0.846760854475, 0.00468892937918, 0.00889383991374
494, 0.750658131905, 0.754213445663, 0.840271533423, 0.847884306547, 0.00471393579468, 0.00897855174921
498, 0.750867155452, 0.754442335328, 0.841300342402, 0.848995219773, 0.0047388378248, 0.00906351083155
502, 0.751063820504, 0.75465872494, 0.842316622025, 0.850093875214, 0.00476361607945, 0.00914869923854
506, 0.751248380729, 0.754862893689, 0.84332062177, 0.851180546918, 0.00478830392952, 0.00923414565436
510, 0.751421136016, 0.755055113555, 0.84431263782, 0.852255501952, 0.00481286395353, 0.00931981561131
514, 0.751582319836, 0.755235649888, 0.845292899644, 0.853319000461, 0.00483733792502, 0.00940574487616
518, 0.751732192967, 0.755404761084, 0.846261664102, 0.854371296571, 0.00486172222734, 0.00949192991553
522, 0.751871021688, 0.755562699181, 0.847219193673, 0.855412637532, 0.0048859975453, 0.00957835259701
526, 0.751999045714, 0.755709709859, 0.848165725109, 0.856443264654, 0.00491017132122, 0.00966501797262
530, 0.752116498044, 0.755846033057, 0.849101487487, 0.857463413315, 0.00493425228034, 0.00975193308309
534, 0.752223617694, 0.755971902512, 0.850026716448, 0.858473312967, 0.00495823297868, 0.00983909038466
538, 0.752320628361, 0.756087546394, 0.850941632993, 0.85947318803, 0.00498211887072, 0.00992649352639
542, 0.752407733414, 0.756193187362, 0.851846437099, 0.860463256955, 0.0050059350062, 0.0100141636335
546, 0.7524851753, 0.756289042738, 0.852741368034, 0.861443733159, 0.00502964769157, 0.0101020702697
550, 0.752553150615, 0.756375324572, 0.853626619532, 0.862414824986, 0.00505327690222, 0.0101902300374
554, 0.752611873351, 0.756452240179, 0.85450240306, 0.863376735667, 0.00507681334461, 0.0102786330004
558, 0.752661543659, 0.756519991706, 0.855368916098, 0.864329664254, 0.00510025919904, 0.0103672805951
562, 0.752702351821, 0.756578776684, 0.856226345718, 0.865273804544, 0.00512362358279, 0.0104561802036
566, 0.752734489138, 0.75662878806, 0.857074881023, 0.866209346063, 0.00514690821054, 0.0105453318885
570, 0.752758133508, 0.756670214233, 0.857914697509, 0.867136473976, 0.00517012649871, 0.0106347463677
574, 0.752773492021, 0.756703239606, 0.858745999898, 0.868055369217, 0.00519324799863, 0.0107243957584
578, 0.752780728194, 0.756728044055, 0.859568949154, 0.868966208422, 0.00521629387525, 0.0108142976992
582, 0.752780012214, 0.756744803509, 0.86038371306, 0.869869164833, 0.00523927125247, 0.0109044579997
586, 0.752771525524, 0.756753689944, 0.861190471401, 0.870764407193, 0.00526216716609, 0.010994863493
590, 0.752755440788, 0.756754871501, 0.861989394565, 0.871652100703, 0.00528497517985, 0.0110855077724
594, 0.752731899196, 0.756748512593, 0.862780621456, 0.872532406907, 0.00530772552607, 0.0111764163418
598, 0.752701063295, 0.756734773921, 0.863564312669, 0.8734054838, 0.00533041531232, 0.0112675856901
602, 0.752663103677, 0.75671381295, 0.864340637032, 0.874271485923, 0.0053530267379, 0.01135899895
606, 0.752618168648, 0.756685783428, 0.865109740969, 0.875130564283, 0.00537556654081, 0.0114506608764
610, 0.75256641426, 0.75665083588, 0.865871779055, 0.875982867187, 0.00539802697177, 0.0115425637996
614, 0.752507957509, 0.7566091176, 0.86662686572, 0.876828539184, 0.00542044762072, 0.0116347415799
618, 0.752442985484, 0.756560772738, 0.867375186885, 0.877667721942, 0.00544277129184, 0.0117271432001
622, 0.752371600893, 0.756505942284, 0.868116843771, 0.878500554134, 0.00546504813772, 0.0118198108292
626, 0.752293930868, 0.756444764572, 0.868851961415, 0.879327171511, 0.00548729252657, 0.0119127560661
630, 0.752210164877, 0.756377374708, 0.869580728609, 0.880147706988, 0.00550943215623, 0.0120059147963
634, 0.752120388097, 0.7563039051, 0.870303228146, 0.880962290531, 0.00553152902541, 0.0120993401187
638, 0.75202473554, 0.756224485416, 0.871019593639, 0.881771049994, 0.00555357563413, 0.0121930248844
642, 0.751923347671, 0.756139242655, 0.87172996485, 0.882574110012, 0.00557555374312, 0.0122869513605
646, 0.751816337144, 0.756048301222, 0.872434452546, 0.883371592882, 0.00559747845624, 0.0123811320447
650, 0.75170382288, 0.755951782989, 0.873133174691, 0.884163618422, 0.00561935325165, 0.0124755684371
654, 0.75158594311, 0.755849807279, 0.873826267852, 0.884950304032, 0.00564115268356, 0.0125702382716
658, 0.751462775344, 0.755742491301, 0.874513808409, 0.88573176476, 0.00566292885007, 0.0126651846494
662, 0.751334450169, 0.755629949629, 0.8751959258, 0.88650811336, 0.00568466014587, 0.0127603880772
666, 0.751201106506, 0.755512294666, 0.875872757902, 0.887279460175, 0.005706311056, 0.0128558168931
670, 0.751062819242, 0.755389636597, 0.876544378924, 0.888045913932, 0.00572792787406, 0.0129515094067
674, 0.750919698671, 0.755262083447, 0.877210896892, 0.888807580652, 0.00574950718634, 0.0130474627046
678, 0.750771866761, 0.755129741135, 0.877872433557, 0.889564564493, 0.00577102733053, 0.0131436563496
682, 0.750619414527, 0.754992713527, 0.878529078938, 0.890316967598, 0.00579250491013, 0.0132401033443
686, 0.750462440304, 0.754851102392, 0.879180930146, 0.891064890146, 0.00581394406723, 0.0133368064782
690, 0.750301065821, 0.754705007841, 0.879828108262, 0.891808430398, 0.00583531575155, 0.013433739498
694, 0.750135344449, 0.754554527777, 0.880470665437, 0.89254768475, 0.00585667856411, 0.0135309513643
698, 0.749965391374, 0.754399758353, 0.88110871556, 0.893282747773, 0.00587800689133, 0.0136284197172
702, 0.749791330027, 0.754240793909, 0.88174238215, 0.89401371209, 0.00589926177251, 0.0137261093144
706, 0.749613214305, 0.754077727022, 0.882371718183, 0.894740669126, 0.00592049407795, 0.0138240625132
710, 0.74943113721, 0.753910648543, 0.882996814578, 0.895463708054, 0.00594170057351, 0.0139222766531
714, 0.749245203969, 0.753739647641, 0.883617777721, 0.896182916591, 0.00596285957172, 0.0140207301849
718, 0.749055491293, 0.753564811844, 0.884234682297, 0.896898380842, 0.00598398502721, 0.0141194351723
722, 0.748862086737, 0.753386226985, 0.884847614834, 0.897610185338, 0.0060050742703, 0.0142183886868
726, 0.748665070773, 0.753203977619, 0.88545665622, 0.898318413076, 0.00602613233669, 0.0143175923695
730, 0.748464522449, 0.753018146476, 0.886061884105, 0.899023145551, 0.00604716373485, 0.0144170497838
734, 0.748260541678, 0.752828814898, 0.886663398202, 0.899724462795, 0.00606814342131, 0.014516738327
738, 0.748053179945, 0.75263606277, 0.887261248971, 0.900422443225, 0.00608910873601, 0.0146166883702
742, 0.747842500869, 0.752439968555, 0.887855498978, 0.901117164433, 0.00611007904732, 0.0147169158222
746, 0.747628633243, 0.752240609326, 0.888446277566, 0.901808702053, 0.00613098525448, 0.0148173603302
750, 0.74741162891, 0.752038060798, 0.88903363568, 0.90249713059, 0.00615185870142, 0.0149180473309
754, 0.747191547637, 0.75183239736, 0.889617631987, 0.903182523248, 0.00617271846758, 0.0150189921886
758, 0.746968460096, 0.751623692105, 0.890198336909, 0.903864951958, 0.00619356741661, 0.0151201957988
762, 0.746742459617, 0.751412016767, 0.890775843484, 0.904544487406, 0.00621437646144, 0.0152216326709
766, 0.746513600422, 0.751197442124, 0.89135020496, 0.905221199061, 0.00623516726694, 0.0153233199966
770, 0.746281954161, 0.750980037451, 0.891921493155, 0.905895155204, 0.00625593631698, 0.0154252530981
774, 0.7460475882, 0.750759870941, 0.892489774589, 0.906566422954, 0.00627668436091, 0.0155274318667
778, 0.745810563059, 0.750537009631, 0.893055109435, 0.907235068292, 0.0062974197292, 0.0156298619322
782, 0.745570969619, 0.750311519424, 0.893617588201, 0.907901155915, 0.00631810878795, 0.0157325140749
786, 0.745328818401, 0.750083465119, 0.894177220657, 0.908564749973, 0.00633882352991, 0.0158354474091
790, 0.745084218428, 0.74985291043, 0.894734116431, 0.909225912991, 0.0063595032246, 0.0159386092636
794, 0.744837222478, 0.749619918015, 0.895288326541, 0.909884706648, 0.00638016069471, 0.016042010598
798, 0.744587867166, 0.749384549493, 0.895839887763, 0.910541191608, 0.00640082896017, 0.0161456768575
802, 0.744336259674, 0.749146865472, 0.896388908009, 0.911195427535, 0.00642144553951, 0.0162495542437
806, 0.744082415369, 0.748906925477, 0.89693540094, 0.911847473123, 0.00644206902692, 0.0163536914044
810, 0.743826395314, 0.748664788341, 0.897479427349, 0.912497386109, 0.00646269612472, 0.0164580841425
814, 0.743568281898, 0.748420511658, 0.898021070476, 0.913145223299, 0.00648329339479, 0.0165627026646
818, 0.743308113188, 0.748174152192, 0.898560367435, 0.913791040583, 0.00650388547852, 0.0166675667312
822, 0.743045947956, 0.747925765799, 0.899097376122, 0.914434892958, 0.00652446815733, 0.01677267234
826, 0.742781838965, 0.74767540744, 0.89963214958, 0.915076834544, 0.00654504404853, 0.0168780198357
830, 0.74251584086, 0.747423131207, 0.900164742585, 0.915716918435, 0.00656561209049, 0.0169836065455
834, 0.742248001352, 0.747168990333, 0.900695202181, 0.916355197412, 0.00658617935833, 0.0170894378899
838, 0.741978392771, 0.746913037218, 0.901223600457, 0.916991722887, 0.00660671885611, 0.0171954904686
