# optical data by Diego Dalvit, omegap = 9eV
# T = 295K
# R = 148200nm
#
# P_PR = pi³*hbar*c*R/(120*L^4)
#
# order of finite difference formula: 8
# stepsize: 0
#
# L (nm), P_Drude/F_PR, P_PFA_Drude/P_PR, P_plasma/P_PR, P_PFA_plasma/P_PR, 1-P_Drude/P_PFA_Drude, 1-P_plasma/P_PFA_plasma
114, 0.494350205348, 0.494522371719, 0.500830539319, 0.501027358158, 0.00034814677882, 0.000392830522187
118, 0.501728004673, 0.501909828386, 0.508622919498, 0.508831556254, 0.000362263702802, 0.000410031086747
122, 0.508861213742, 0.509052126074, 0.516177493018, 0.516397473043, 0.000375034937156, 0.000425989739662
126, 0.515760606969, 0.515960464505, 0.523504666791, 0.523735944972, 0.000387350484958, 0.000441593102025
130, 0.522435825765, 0.522645335058, 0.530613762156, 0.530857123678, 0.000400863221123, 0.000458431301849
134, 0.528897901011, 0.529116583183, 0.53751545344, 0.537770536636, 0.000413296766449, 0.00047433464365
138, 0.53515536251, 0.535383462764, 0.54421801455, 0.544485140114, 0.0004260502421, 0.000490602120912
142, 0.541217241757, 0.541454684458, 0.550730173657, 0.551009365898, 0.000438527372858, 0.000506692368692
146, 0.547091571396, 0.547338458328, 0.557059710341, 0.557351162733, 0.00045106812346, 0.000522924164576
150, 0.552786260535, 0.553042532253, 0.563214286375, 0.56351803334, 0.000463385188069, 0.000539019067133
154, 0.558308453951, 0.558574226125, 0.569200818438, 0.569517067329, 0.00047580457948, 0.000555293088755
158, 0.563665301254, 0.563940462659, 0.575026238426, 0.575354971398, 0.000487926338245, 0.000571356794969
162, 0.568863175772, 0.569147795453, 0.580696718007, 0.58103809591, 0.000500080442125, 0.00058753101689
166, 0.573908308129, 0.574202434332, 0.586218296636, 0.586572459585, 0.000512234337046, 0.000603783800529
170, 0.578806788121, 0.579110268458, 0.591596885957, 0.591963771707, 0.000524045858195, 0.000619777370547
174, 0.583563834521, 0.583876887446, 0.596837535581, 0.597217452472, 0.000536162557019, 0.000636144990434
178, 0.588185218717, 0.588507600707, 0.601945841072, 0.602338651665, 0.000547795795963, 0.000652142431199
182, 0.592675574035, 0.593007455205, 0.606926318166, 0.607332265523, 0.000559657669874, 0.000668410653837
186, 0.597039984636, 0.597381251849, 0.61178388527, 0.612202952815, 0.000571272051333, 0.000684523887956
190, 0.601282841061, 0.601633560389, 0.616522801407, 0.616955149187, 0.00058294508755, 0.000700776678158
194, 0.60540869727, 0.605768733633, 0.621147500546, 0.621593080356, 0.00059434623098, 0.000716835215762
198, 0.609421455119, 0.609790920005, 0.625661761956, 0.626120774963, 0.000605887811186, 0.000733106176629
202, 0.613325291917, 0.613704075812, 0.630069646338, 0.630542075552, 0.000617209353068, 0.000749242965119
206, 0.617123855573, 0.617511976007, 0.634374698318, 0.634860649774, 0.000628522926572, 0.000765445860774
210, 0.620820790021, 0.621218224833, 0.638580459199, 0.639079999832, 0.000639766827184, 0.000781655869602
214, 0.624419566039, 0.624826265108, 0.642690302238, 0.643203471996, 0.00065089944487, 0.000797834247776
218, 0.627923446223, 0.628339387347, 0.646707399629, 0.64723426508, 0.000661968886546, 0.000814025893028
222, 0.631335573146, 0.631760738012, 0.650634814151, 0.651175438742, 0.00067298399634, 0.000830228781462
226, 0.634658928973, 0.635093327483, 0.654475432589, 0.65502992058, 0.000683991613386, 0.00084650788167
230, 0.637896458068, 0.638340037065, 0.658232115592, 0.658800513425, 0.000694894524242, 0.000862776852131
234, 0.641050949828, 0.641503625987, 0.661907600539, 0.662489901844, 0.000705648637385, 0.000878958763013
238, 0.644124966013, 0.644586737743, 0.665504374038, 0.66610065829, 0.000716384162487, 0.000895186402574
242, 0.647121073131, 0.647591906068, 0.66902492017, 0.669635248874, 0.000727051917608, 0.000911434552431
246, 0.65004166019, 0.650521560559, 0.672471572083, 0.673096038778, 0.000737716316722, 0.000927752740451
250, 0.652889067358, 0.65337803194, 0.67584661064, 0.676485297344, 0.00074836397751, 0.000944125032827
254, 0.655665676306, 0.65616355702, 0.67915235594, 0.679805202851, 0.000758775321147, 0.000960344092805
258, 0.658373543233, 0.658880283396, 0.682390814536, 0.683057847011, 0.000769092923208, 0.000976538777951
262, 0.661014582488, 0.661530273639, 0.68556384195, 0.686245239203, 0.000779542785159, 0.000992935490476
266, 0.663590897174, 0.664115509717, 0.688673478652, 0.689369310549, 0.000789941711783, 0.00100937463604
270, 0.666104462634, 0.666637896684, 0.691721670329, 0.69243191731, 0.00080018560655, 0.00102572825326
274, 0.668557102691, 0.669099266399, 0.694710209779, 0.695434844958, 0.000810288898812, 0.00104198859797
278, 0.67095050081, 0.671501381034, 0.697640706123, 0.698379811172, 0.00082037094668, 0.00105831388234
282, 0.673286306289, 0.673845936136, 0.700514758296, 0.701268469177, 0.000830501182752, 0.0010747822185
286, 0.675566226993, 0.676134564006, 0.70333405095, 0.704102410354, 0.000840567903264, 0.00109126086206
290, 0.677791850887, 0.678368836424, 0.706100142259, 0.706883167597, 0.000850548412569, 0.00110771535365
294, 0.679964741237, 0.680550267506, 0.70881455755, 0.709612217726, 0.000860371816042, 0.001124078976
298, 0.682086253212, 0.682680316085, 0.711478606176, 0.712290983729, 0.000870191888272, 0.001140513598
302, 0.684157777899, 0.684760388508, 0.714093639878, 0.714920837678, 0.000880031349521, 0.00115704810436
306, 0.68618075747, 0.686791840821, 0.716661069492, 0.717503102752, 0.000889765012362, 0.00117356044314
310, 0.688156485567, 0.688775980798, 0.719182170886, 0.720039055077, 0.000899414684202, 0.00119005237997
314, 0.690086208748, 0.690714070438, 0.721658164313, 0.722529926315, 0.000909003764371, 0.0012065410308
318, 0.691971067059, 0.692607327518, 0.724090140859, 0.724976905352, 0.000918645290606, 0.00122316240135
322, 0.693812319186, 0.694456927847, 0.726479331875, 0.727381139772, 0.000928219785208, 0.00123980104447
326, 0.69561126861, 0.696264006925, 0.728827023898, 0.729743738339, 0.000937486798818, 0.00125621419206
330, 0.697368702126, 0.698029661442, 0.73113397239, 0.732065771818, 0.000946892880281, 0.00127283567175
334, 0.699085627585, 0.69975495132, 0.733401172619, 0.73434827536, 0.000956511610224, 0.00128971875147
338, 0.700763443571, 0.701440900772, 0.735629996534, 0.736592249184, 0.000965807953821, 0.00130635728438
342, 0.702403102809, 0.703088500242, 0.737821358713, 0.7387986608, 0.000974838064689, 0.00132282601293
346, 0.704005336338, 0.704698707318, 0.739975980189, 0.740968445553, 0.00098392543143, 0.00133941650382
350, 0.70557090695, 0.70627244853, 0.742094607267, 0.743102508718, 0.000993301637638, 0.00135634241495
354, 0.707101054715, 0.707810620137, 0.744178447994, 0.745201725904, 0.00100247919801, 0.00137315558151
358, 0.708596769207, 0.709314089804, 0.746228477488, 0.747266945047, 0.00101128767454, 0.00138968753487
362, 0.7100583444, 0.710783697257, 0.748244966416, 0.749298986677, 0.00102049731859, 0.00140667514452
366, 0.711486990364, 0.712220255874, 0.750229100228, 0.751298645843, 0.00102954880028, 0.00142359582445
370, 0.712883732806, 0.713624553211, 0.752181918156, 0.753266692335, 0.00103810946786, 0.0014400931167
374, 0.714248627222, 0.71499735252, 0.754103461139, 0.755203872032, 0.0010471721262, 0.00145710441079
378, 0.715582867083, 0.716339393214, 0.755994845597, 0.757110908059, 0.00105610013631, 0.00147410696365
382, 0.716887373504, 0.717651392006, 0.757856946752, 0.758988500991, 0.00106460951658, 0.00149087138684
386, 0.718162321456, 0.718934043918, 0.7596900721, 0.760837330508, 0.00107342595468, 0.001507889218
390, 0.719408709115, 0.720188022689, 0.761495237689, 0.762658055436, 0.00108209738148, 0.00152469083489
394, 0.720627135341, 0.721413982064, 0.763272795459, 0.764451314884, 0.0010907006824, 0.00154165399667
398, 0.721818105106, 0.72261255608, 0.765023280521, 0.766217729226, 0.00109941484782, 0.00155888941192
402, 0.722982530156, 0.72378436001, 0.766747753225, 0.767957900099, 0.00110782975934, 0.00157579845642
406, 0.724120756601, 0.724929991214, 0.768446453546, 0.769672411939, 0.00111629346622, 0.00159283140942
410, 0.725233362874, 0.726050029418, 0.770119955357, 0.771361831804, 0.00112480753581, 0.00160997912452
414, 0.726321045794, 0.72714503756, 0.771768938224, 0.773026710379, 0.00113318763528, 0.00162707463814
418, 0.727384285268, 0.728215562541, 0.773393875994, 0.774667582866, 0.00114152637743, 0.00164419797622
422, 0.728423728325, 0.729262135451, 0.774995404252, 0.776284968858, 0.00114966496291, 0.00166120001974
426, 0.729439609047, 0.730285272315, 0.776573762982, 0.777879373254, 0.00115799030966, 0.00167842253888
430, 0.730432602754, 0.731285474786, 0.778129577278, 0.779451287093, 0.00116626414998, 0.00169569264448
434, 0.731403115629, 0.732263230291, 0.779663270103, 0.781001187343, 0.00117459763951, 0.00171307964833
438, 0.732351870645, 0.733219012715, 0.781175533775, 0.782529537762, 0.00118265082475, 0.00173029121898
442, 0.733279099909, 0.734153283038, 0.782666625944, 0.784036789684, 0.00119073652405, 0.00174757582537
446, 0.734185395724, 0.735066489407, 0.784137104142, 0.785523381721, 0.00119865848198, 0.00176478207001
450, 0.735071033639, 0.735959067772, 0.785587242163, 0.786989740699, 0.00120663522063, 0.00178210523462
454, 0.735936553492, 0.736831442474, 0.787017563948, 0.788436281823, 0.00121450976462, 0.00179940713916
458, 0.736782108471, 0.737684026251, 0.788428221659, 0.789863409474, 0.00122263428275, 0.00181700759586
462, 0.73760833583, 0.738517220827, 0.789819843146, 0.791271516933, 0.00123068896868, 0.00183460892447
466, 0.738415741128, 0.739331417479, 0.791192932629, 0.792660987078, 0.00123851946364, 0.00185205841186
470, 0.739204760819, 0.740126996953, 0.792547904202, 0.794032193076, 0.00124605120101, 0.00186930566119
474, 0.739975520442, 0.740904330108, 0.793884890246, 0.79538549797, 0.00125361619363, 0.00188664204716
478, 0.740728232156, 0.741663778097, 0.795204072909, 0.796721255519, 0.00126141517047, 0.00190428283318
482, 0.741463249789, 0.742405692937, 0.796505823922, 0.798039810249, 0.00126944493623, 0.00192219273611
486, 0.742181389381, 0.743130417398, 0.797790937205, 0.799341498204, 0.0012770679209, 0.00193979794961
490, 0.742882651842, 0.743838285582, 0.799059422879, 0.800626646512, 0.00128473319989, 0.00195749621819
494, 0.74356782314, 0.744529623062, 0.800312047813, 0.801895574156, 0.00129182223555, 0.0019747288715
498, 0.744236384779, 0.745204747404, 0.801548284438, 0.803148591987, 0.00129945847559, 0.00199254230835
502, 0.744889180929, 0.74586396802, 0.802768964155, 0.804386003448, 0.00130692342299, 0.00201027775916
506, 0.74552621047, 0.746507586701, 0.803974110002, 0.805608104076, 0.00131462325066, 0.00202827412808
510, 0.746148210355, 0.747135897713, 0.805164432979, 0.806815182253, 0.00132196480051, 0.00204600670724
514, 0.746755344791, 0.747749188299, 0.806340105834, 0.80800751917, 0.0013291134561, 0.00206361116262
518, 0.747347654895, 0.748347738474, 0.807501124644, 0.809185389543, 0.00133638885749, 0.00208143266208
522, 0.747925386467, 0.748931821537, 0.808647749438, 0.810349061043, 0.00134382735716, 0.00209947994907
526, 0.748488984791, 0.749501704196, 0.809780447894, 0.811498795038, 0.0013511902626, 0.00211749808429
530, 0.749038668881, 0.750057646708, 0.810899395668, 0.812634846645, 0.00135853268246, 0.00213558523112
534, 0.749574934896, 0.750599903316, 0.812005142556, 0.813757464801, 0.00136553230991, 0.00215337163731
538, 0.750097770622, 0.751128722049, 0.813097599409, 0.814866892917, 0.0013725362866, 0.00217126689483
542, 0.750607476372, 0.751644345166, 0.814177111778, 0.815963368313, 0.00137946729911, 0.00218913814556
546, 0.751104128881, 0.752147009194, 0.815243707457, 0.8170471229, 0.00138653787064, 0.00220723553367
550, 0.75158787618, 0.752636945368, 0.816297546875, 0.818118383204, 0.00139385821319, 0.00222563918162
554, 0.752059276714, 0.753114379356, 0.817339230571, 0.819177370414, 0.00140098592089, 0.00224388503475
558, 0.75251842485, 0.753579531721, 0.818368789045, 0.820224300998, 0.00140808876342, 0.00226220065676
562, 0.752965814499, 0.754032617983, 0.819386761235, 0.821259386117, 0.00141479752797, 0.00228018688525
566, 0.753401437016, 0.754473848701, 0.820393060055, 0.822282832276, 0.0014214033882, 0.00229820220821
570, 0.753825381049, 0.754903429895, 0.821387841889, 0.823294841325, 0.00142806192584, 0.00231630193715
574, 0.754237764126, 0.755321562734, 0.822371190441, 0.824295610471, 0.0014348837125, 0.00233462365335
578, 0.754638682167, 0.755728443976, 0.82334322002, 0.825285332906, 0.00144200184292, 0.00235326233088
582, 0.755028734495, 0.756124266013, 0.824304509508, 0.826264197147, 0.00144887760842, 0.00237174458923
586, 0.755407921366, 0.756509216994, 0.825255037526, 0.827232387697, 0.00145575969537, 0.00239032006061
590, 0.755776772481, 0.756883480874, 0.826195362192, 0.828190085021, 0.00146219123592, 0.00240853261268
594, 0.756135034614, 0.757247237796, 0.827125190125, 0.829137465653, 0.00146874511537, 0.00242695042813
598, 0.756483117593, 0.757600663789, 0.828044989771, 0.830074702188, 0.00147511248245, 0.00244521657062
602, 0.756820890492, 0.757943931157, 0.828954556379, 0.831001963873, 0.00148169359082, 0.00246378177623
606, 0.757148638675, 0.75827720851, 0.829854238544, 0.831919415949, 0.00148833411078, 0.00248242481943
610, 0.757466513256, 0.758600660862, 0.830744123885, 0.832827220273, 0.00149505222534, 0.00250123475453
614, 0.75777494384, 0.758914449665, 0.83162465044, 0.833725535276, 0.00150149443827, 0.00251987584314
618, 0.758073783047, 0.759218733164, 0.832495723349, 0.834614516054, 0.00150806357492, 0.00253864827937
622, 0.758363546752, 0.759513666078, 0.833357774956, 0.835494314335, 0.00151428391256, 0.00255721594098
626, 0.758644125386, 0.759799399973, 0.834210755976, 0.836365079068, 0.00152049947212, 0.00257581664538
630, 0.758915476177, 0.760076083271, 0.835054601075, 0.837226955721, 0.00152696173349, 0.00259470222617
634, 0.759178153016, 0.760343861333, 0.835889842124, 0.838080086908, 0.00153313306896, 0.00261340749895
638, 0.759431929658, 0.760602876472, 0.836716280587, 0.838924612319, 0.0015394982716, 0.00263233632577
642, 0.759677118556, 0.760853268305, 0.837534208093, 0.839760668802, 0.00154582992246, 0.00265130386752
646, 0.759913917318, 0.761095173399, 0.838343819824, 0.840588390433, 0.0015520477885, 0.00267023746098
650, 0.760142419084, 0.761328725642, 0.839145209571, 0.841407908468, 0.00155820543431, 0.00268918187456
654, 0.760362617356, 0.761554056233, 0.839938370029, 0.8422193519, 0.00156448365972, 0.00270829905027
658, 0.760574885998, 0.761771293754, 0.840723667344, 0.84302284677, 0.00157056030555, 0.00272730381447
662, 0.760779463932, 0.761980564231, 0.841501362793, 0.843818516754, 0.00157628731796, 0.00274603355456
666, 0.760975827689, 0.762181991139, 0.842270896538, 0.84460648309, 0.00158251370997, 0.00276529555378
670, 0.761164773425, 0.762375695731, 0.843033082632, 0.845386864637, 0.00158835376352, 0.00278426612018
674, 0.761346052006, 0.762561796675, 0.843787666097, 0.846159777937, 0.00159429002948, 0.00280338524967
678, 0.761519337001, 0.76274041041, 0.844534284426, 0.846925337147, 0.0016009029963, 0.00282321547841
682, 0.761685928406, 0.762911651123, 0.845274306388, 0.847683654604, 0.00160663782583, 0.00284227282583
686, 0.761845012062, 0.763075630804, 0.84600686264, 0.848434840091, 0.00161270874443, 0.00286171351838
690, 0.761997125755, 0.763232459304, 0.846732509535, 0.849179001431, 0.0016185547847, 0.0028810084704
694, 0.76214269556, 0.763382244379, 0.847451684908, 0.849916244402, 0.00162375903893, 0.00289976748873
698, 0.762280863436, 0.763525091688, 0.848163473085, 0.850646672779, 0.0016295839724, 0.00291919050886
702, 0.762412246033, 0.763661105089, 0.848868540742, 0.85137038839, 0.00163535768444, 0.00293861247915
706, 0.762536791623, 0.763790386298, 0.849566796917, 0.852087491157, 0.00164128103362, 0.00295825753295
710, 0.762654735096, 0.763913035202, 0.850258512682, 0.852798079019, 0.0016471771626, 0.00297792220646
714, 0.762766177488, 0.764029149838, 0.850943780447, 0.853502248489, 0.00165304209908, 0.00299761136766
718, 0.7628714881, 0.764138826436, 0.851622940213, 0.854200093903, 0.00165851844205, 0.00301703746963
722, 0.762970281487, 0.764242159458, 0.85229565532, 0.854891708007, 0.0016642342419, 0.00303670355205
726, 0.763062778247, 0.764339241644, 0.85296207005, 0.855577181858, 0.00167002206316, 0.00305654692876
730, 0.763149295733, 0.764430163987, 0.853622553711, 0.856256604862, 0.00167558570223, 0.00307624038926
734, 0.763229765685, 0.764515016031, 0.854277048871, 0.856930064814, 0.00168113159151, 0.00309595386182
738, 0.763304442405, 0.764593885507, 0.85492575473, 0.857597647933, 0.00168644181811, 0.003115555656
742, 0.763373288088, 0.764666858651, 0.855568705723, 0.858259438898, 0.0016916786024, 0.00313510467074
746, 0.763436329636, 0.764734020161, 0.856205867557, 0.858915520767, 0.0016969174784, 0.00315473774171
750, 0.763493337703, 0.764795453239, 0.85683700933, 0.8595659755, 0.00170256704671, 0.00317481874291
754, 0.763544982224, 0.764851239621, 0.857462831718, 0.860210883231, 0.00170785811656, 0.0031946253725
758, 0.763590779849, 0.764901459611, 0.858082816231, 0.860850322829, 0.00171352760028, 0.00321485225135
762, 0.763631154269, 0.764946192114, 0.858697399387, 0.861484371788, 0.00171912463729, 0.00323508178757
766, 0.763666336617, 0.764985514602, 0.859306819624, 0.862113106262, 0.00172444831912, 0.00325512582662
770, 0.763695898504, 0.765019503408, 0.859910644956, 0.862736601092, 0.00173015837869, 0.0032755723272
774, 0.763720811489, 0.765048233351, 0.86050984947, 0.863354929838, 0.0017350825793, 0.00329537745059
778, 0.763740311065, 0.765071778043, 0.861103666208, 0.863968164805, 0.00174031641972, 0.00331551405976
782, 0.76375493226, 0.765090209844, 0.861692632532, 0.864576377072, 0.00174525509184, 0.00333544220876
786, 0.763764774756, 0.765103599892, 0.862276834393, 0.865179636404, 0.00174986124187, 0.00335514370605
790, 0.763768759682, 0.765112018126, 0.862855168327, 0.865778011748, 0.00175563631538, 0.00337597326499
794, 0.763768543711, 0.765115533317, 0.863429342756, 0.866371570533, 0.00176050484847, 0.00339603453905
798, 0.76376307948, 0.76511421309, 0.863998255348, 0.866960379193, 0.001765924076, 0.00341667729781
802, 0.763752974382, 0.765108123947, 0.864562563206, 0.867544503065, 0.00177118700301, 0.00343721831911
806, 0.763738386589, 0.765097331235, 0.865122397781, 0.868124006409, 0.00177617224686, 0.00345758049011
810, 0.763719135275, 0.765081899419, 0.865677586957, 0.868698952432, 0.0017812003467, 0.00347803513184
814, 0.763695345714, 0.765061891714, 0.866228257767, 0.869269403315, 0.00178619012972, 0.00349850752363
818, 0.763666961126, 0.765037370375, 0.866774287757, 0.869835420225, 0.00179129713431, 0.00351920880355
822, 0.763634463002, 0.765008396654, 0.86731630397, 0.870397063349, 0.00179597198899, 0.00353948733117
826, 0.763597227346, 0.764975030816, 0.867853533705, 0.870954391778, 0.00180110907425, 0.00356029902626
830, 0.763556003781, 0.764937332161, 0.868386794783, 0.871507464046, 0.00180580594316, 0.00358077169894
834, 0.763510049998, 0.764895359048, 0.8689153032, 0.87205633736, 0.00181110923753, 0.00360187068807
838, 0.763460554055, 0.764849168909, 0.869440324869, 0.872601068158, 0.00181554077604, 0.00362220882509
842, 0.763406391999, 0.764798818271, 0.869960620587, 0.873141711994, 0.00182064385874, 0.0036432704604
846, 0.763348536243, 0.764744362775, 0.870477269602, 0.873678323548, 0.0018252197721, 0.00366388161296
850, 0.763286293171, 0.764685857133, 0.870989517456, 0.87421095665, 0.00183024695475, 0.00368496776293
854, 0.763220634388, 0.764623355395, 0.871498371139, 0.874739664296, 0.00183452545309, 0.00370543750301
858, 0.763150390165, 0.764556910583, 0.872002630627, 0.875264498665, 0.00183965431312, 0.00372672265679
862, 0.763076626568, 0.76448657497, 0.872503371452, 0.875785511134, 0.00184430760151, 0.00374765241144
866, 0.76299879219, 0.764412400027, 0.873000025761, 0.876302752298, 0.00184927381809, 0.00376893320031
