# optical data by Diego Dalvit, omegap = 9eV
# T = 295K
# R = 31400nm
#
# P_PR = pi³*hbar*c*R/(120*L^4)
#
# order of finite difference formula: 8
# stepsize: 0
#
# L (nm), P_Drude/F_PR, P_PFA_Drude/P_PR, P_plasma/P_PR, P_PFA_plasma/P_PR
86, 0.43429475, 0.43481706, 0.43806408, 0.43863378
90, 0.44374993, 0.44431218, 0.44786951, 0.44848494
94, 0.45285332, 0.4534561, 0.45733303, 0.45799514
98, 0.46162396, 0.46226784, 0.46647312, 0.46718283
102, 0.47007939, 0.47076485, 0.47530676, 0.4760649
106, 0.47823574, 0.4789632, 0.48384956, 0.48465692
110, 0.48610788, 0.48687778, 0.49211594, 0.49297329
114, 0.49370975, 0.49452237, 0.50011936, 0.50102736
118, 0.50105414, 0.50190983, 0.50787222, 0.50883156
122, 0.50815308, 0.50905213, 0.51538617, 0.51639747
126, 0.51501785, 0.51596046, 0.5226721, 0.52373594
130, 0.52165898, 0.52264534, 0.52974021, 0.53085712
134, 0.52808624, 0.52911658, 0.53659997, 0.53777054
138, 0.53430902, 0.53538346, 0.54326046, 0.54448514
142, 0.540336, 0.54145468, 0.54973009, 0.55100937
146, 0.54617545, 0.54733846, 0.55601686, 0.55735116
150, 0.55183509, 0.55304253, 0.56212824, 0.56351803
154, 0.55732233, 0.55857423, 0.56807144, 0.56951707
158, 0.56264401, 0.56394046, 0.57385306, 0.57535497
162, 0.56780684, 0.5691478, 0.57947962, 0.5810381
166, 0.57281684, 0.57420243, 0.58495693, 0.58657246
170, 0.5776802, 0.57911027, 0.59029103, 0.59196377
174, 0.58240213, 0.58387689, 0.59548694, 0.59721745
178, 0.58698859, 0.5885076, 0.60055048, 0.60233865
182, 0.59144374, 0.59300746, 0.60548564, 0.60733227
186, 0.59577318, 0.59738125, 0.6102979, 0.61220295
190, 0.59998116, 0.60163356, 0.61499136, 0.61695515
194, 0.60407195, 0.60576873, 0.61957017, 0.62159308
198, 0.6080501, 0.60979092, 0.62403877, 0.62612077
202, 0.61191906, 0.61370408, 0.62840048, 0.63054208
206, 0.61568291, 0.61751198, 0.6326593, 0.63486065
210, 0.61934524, 0.62121822, 0.63681869, 0.63908
214, 0.62290949, 0.62482627, 0.64088201, 0.64320347
218, 0.62637894, 0.62833939, 0.64485246, 0.64723427
222, 0.62975673, 0.63176074, 0.64873306, 0.65117544
226, 0.63304582, 0.63509333, 0.65252673, 0.65502992
230, 0.63624923, 0.63834004, 0.65623637, 0.65880051
234, 0.63936969, 0.64150363, 0.65986468, 0.6624899
238, 0.6424098, 0.64458674, 0.66341416, 0.66610066
242, 0.64537207, 0.64759191, 0.66688727, 0.66963525
246, 0.64825895, 0.65052156, 0.67028638, 0.67309604
250, 0.65107289, 0.65337803, 0.6736139, 0.6764853
254, 0.65381601, 0.65616356, 0.67687187, 0.6798052
258, 0.65649039, 0.65888028, 0.68006234, 0.68305785
262, 0.65909833, 0.66153027, 0.68318754, 0.68624524
266, 0.66164168, 0.66411551, 0.68624927, 0.68936931
270, 0.66412225, 0.6666379, 0.6892493, 0.69243192
274, 0.66654205, 0.66909927, 0.6921896, 0.69543484
278, 0.66890276, 0.67150138, 0.69507179, 0.69837981
282, 0.67120603, 0.67384594, 0.69789748, 0.70126847
286, 0.67345362, 0.67613456, 0.70066841, 0.70410241
290, 0.67564699, 0.67836884, 0.70338598, 0.70688317
294, 0.67778766, 0.68055027, 0.70605169, 0.70961222
298, 0.67987722, 0.68268032, 0.70866709, 0.71229098
302, 0.68191694, 0.68476039, 0.71123341, 0.71492084
306, 0.68390817, 0.68679184, 0.71375198, 0.7175031
310, 0.68585238, 0.68877598, 0.71622422, 0.72003906
314, 0.68775071, 0.69071407, 0.71865125, 0.72252993
318, 0.68960429, 0.69260733, 0.72103418, 0.72497691
322, 0.69141444, 0.69445693, 0.7233743, 0.72738114
326, 0.69318238, 0.69626401, 0.7256728, 0.72974374
330, 0.69490892, 0.69802966, 0.72793047, 0.73206577
334, 0.69659528, 0.69975495, 0.7301485, 0.73434828
338, 0.69824264, 0.7014409, 0.73232805, 0.73659225
342, 0.69985175, 0.7030885, 0.73446984, 0.73879866
346, 0.70142373, 0.70469871, 0.73657498, 0.74096845
350, 0.70295928, 0.70627245, 0.73864415, 0.74310251
354, 0.70445944, 0.70781062, 0.74067836, 0.74520173
358, 0.70592534, 0.70931409, 0.74267873, 0.74726695
362, 0.70735738, 0.7107837, 0.74464564, 0.74929899
366, 0.70875657, 0.71222026, 0.74658007, 0.75129865
370, 0.71012383, 0.71362455, 0.74848294, 0.75326669
374, 0.71145953, 0.71499735, 0.7503546, 0.75520387
378, 0.71276478, 0.71633939, 0.75219614, 0.75711091
382, 0.71404044, 0.71765139, 0.7540084, 0.7589885
386, 0.71528649, 0.71893404, 0.75579136, 0.76083733
390, 0.71650412, 0.72018802, 0.75754617, 0.76265806
394, 0.71769447, 0.72141398, 0.75927399, 0.76445131
398, 0.71885723, 0.72261256, 0.76097448, 0.76621773
402, 0.71999321, 0.72378436, 0.76264843, 0.7679579
406, 0.72110335, 0.72492999, 0.76429679, 0.76967241
410, 0.72218822, 0.72605003, 0.76592008, 0.77136183
414, 0.72324818, 0.72714504, 0.76751869, 0.77302671
418, 0.72428381, 0.72821556, 0.76909316, 0.77466758
422, 0.72529572, 0.72926214, 0.7706441, 0.77628497
426, 0.7262843, 0.73028527, 0.7721719, 0.77787937
430, 0.72725024, 0.73128547, 0.77367722, 0.77945129
434, 0.72819387, 0.73226323, 0.77516039, 0.78100119
438, 0.72911583, 0.73321901, 0.77662205, 0.78252954
442, 0.73001631, 0.73415328, 0.77806236, 0.78403679
446, 0.73089586, 0.73506649, 0.77948188, 0.78552338
450, 0.73175505, 0.73595907, 0.78088115, 0.78698974
454, 0.73259425, 0.73683144, 0.78226056, 0.78843628
458, 0.73341399, 0.73768403, 0.78362061, 0.78986341
462, 0.73421425, 0.73851722, 0.78496128, 0.79127152
466, 0.73499581, 0.73933142, 0.78628334, 0.79266099
470, 0.73575883, 0.740127, 0.78758695, 0.79403219
474, 0.73650407, 0.74090433, 0.78887286, 0.7953855
478, 0.73723141, 0.74166378, 0.79014094, 0.79672126
482, 0.73794135, 0.74240569, 0.79139168, 0.79803981
486, 0.73863422, 0.74313042, 0.7926254, 0.7993415
490, 0.7393106, 0.74383829, 0.7938427, 0.80062665
494, 0.73997071, 0.74452962, 0.79504376, 0.80189557
498, 0.74061464, 0.74520475, 0.79622869, 0.80314859
502, 0.74124269, 0.74586397, 0.79739777, 0.804386
506, 0.74185544, 0.74650759, 0.79855158, 0.8056081
510, 0.74245309, 0.7471359, 0.79969031, 0.80681518
514, 0.74303608, 0.74774919, 0.80081439, 0.80800752
518, 0.74360425, 0.74834774, 0.80192368, 0.80918539
522, 0.74415824, 0.74893182, 0.80301879, 0.81034906
526, 0.74469796, 0.7495017, 0.80409963, 0.8114988
530, 0.74522413, 0.75005765, 0.80516691, 0.81263485
534, 0.74573671, 0.7505999, 0.80622061, 0.81375746
538, 0.74623627, 0.75112872, 0.80726126, 0.81486689
542, 0.7467226, 0.75164435, 0.80828868, 0.81596337
546, 0.74719615, 0.75214701, 0.8093033, 0.81704712
550, 0.74765708, 0.75263695, 0.81030528, 0.81811838
554, 0.74810566, 0.75311438, 0.81129488, 0.81917737
558, 0.74854222, 0.75357953, 0.81227242, 0.8202243
562, 0.7489669, 0.75403262, 0.81323805, 0.82125939
566, 0.74938003, 0.75447385, 0.8141921, 0.82228283
570, 0.74978151, 0.75490343, 0.81513444, 0.82329484
574, 0.75017151, 0.75532156, 0.81606527, 0.82429561
578, 0.75055059, 0.75572844, 0.81698513, 0.82528533
582, 0.75091869, 0.75612427, 0.81789395, 0.8262642
586, 0.7512764, 0.75650922, 0.81879234, 0.82723239
590, 0.7516232, 0.75688348, 0.81967975, 0.82819009
594, 0.75196013, 0.75724724, 0.82055723, 0.82913747
598, 0.75228636, 0.75760066, 0.82142395, 0.8300747
602, 0.75260294, 0.75794393, 0.82228094, 0.83100196
606, 0.75290949, 0.75827721, 0.82312784, 0.83191942
610, 0.75320637, 0.75860066, 0.823965, 0.83282722
614, 0.75349384, 0.75891445, 0.82479267, 0.83372554
618, 0.75377189, 0.75921873, 0.82561085, 0.83461452
622, 0.75404093, 0.75951367, 0.82641994, 0.83549431
626, 0.75430087, 0.7597994, 0.82721984, 0.83636508
630, 0.75455183, 0.76007608, 0.82801068, 0.83722696
634, 0.75479404, 0.76034386, 0.82879269, 0.83808009
638, 0.75502757, 0.76060288, 0.82956591, 0.83892461
642, 0.75525256, 0.76085327, 0.83033051, 0.83976067
646, 0.75546936, 0.76109517, 0.83108683, 0.84058839
650, 0.75567796, 0.76132873, 0.83183485, 0.84140791
654, 0.7558785, 0.76155406, 0.83257472, 0.84221935
658, 0.75607123, 0.76177129, 0.83330667, 0.84302285
662, 0.75625606, 0.76198056, 0.83403063, 0.84381852
666, 0.75643313, 0.76218199, 0.83474672, 0.84460648
670, 0.7566026, 0.7623757, 0.8354551, 0.84538686
674, 0.75676463, 0.7625618, 0.83615594, 0.84615978
678, 0.75691915, 0.76274041, 0.83684915, 0.84692534
682, 0.75706653, 0.76291165, 0.83753512, 0.84768365
686, 0.75720697, 0.76307563, 0.83821403, 0.84843484
690, 0.75734015, 0.76323246, 0.83888558, 0.849179
694, 0.75746678, 0.76338224, 0.83955045, 0.84991624
698, 0.75758656, 0.76352509, 0.84020837, 0.85064667
702, 0.75769941, 0.76366111, 0.84085923, 0.85137039
706, 0.75780586, 0.76379039, 0.84150356, 0.85208749
710, 0.7579056, 0.76391304, 0.84214107, 0.85279808
714, 0.75799907, 0.76402915, 0.84277219, 0.85350225
718, 0.75808614, 0.76413883, 0.84339678, 0.85420009
722, 0.75816709, 0.76424216, 0.84401514, 0.85489171
726, 0.75824195, 0.76433924, 0.84462727, 0.85557718
730, 0.75831057, 0.76443016, 0.84523302, 0.8562566
734, 0.75837368, 0.76451502, 0.84583315, 0.85693006
738, 0.75843078, 0.76459389, 0.84642713, 0.85759765
742, 0.75848204, 0.76466686, 0.84701514, 0.85825944
746, 0.75852785, 0.76473402, 0.84759759, 0.85891552
750, 0.75856759, 0.76479545, 0.8481738, 0.85956598
754, 0.75860197, 0.76485124, 0.84874453, 0.86021088
758, 0.75863101, 0.76490146, 0.84930979, 0.86085032
762, 0.75865456, 0.76494619, 0.8498694, 0.86148437
766, 0.75867322, 0.76498551, 0.85042401, 0.86211311
770, 0.75868632, 0.7650195, 0.85097291, 0.8627366
774, 0.75869439, 0.76504823, 0.85151665, 0.86335493
778, 0.75869743, 0.76507178, 0.85205521, 0.86396816
782, 0.75869531, 0.76509021, 0.85258846, 0.86457638
786, 0.75868861, 0.7651036, 0.85311699, 0.86517964
790, 0.75867685, 0.76511202, 0.85364033, 0.86577801
794, 0.75866029, 0.76511553, 0.85415871, 0.86637157
798, 0.75863906, 0.76511421, 0.85467228, 0.86696038
802, 0.75861313, 0.76510812, 0.85518101, 0.8675445
806, 0.75858268, 0.76509733, 0.85568507, 0.86812401
810, 0.75854769, 0.7650819, 0.85618444, 0.86869895
814, 0.75850825, 0.76506189, 0.85667922, 0.8692694
818, 0.75846442, 0.76503737, 0.85716945, 0.86983542
822, 0.75841617, 0.7650084, 0.85765512, 0.87039706
826, 0.75836365, 0.76497503, 0.85813636, 0.87095439
830, 0.75830699, 0.76493733, 0.85861331, 0.87150746
834, 0.75824616, 0.76489536, 0.85908593, 0.87205634
838, 0.75818124, 0.76484917, 0.85955433, 0.87260107
842, 0.75811251, 0.76479882, 0.86001875, 0.87314171
846, 0.75803945, 0.76474436, 0.86047869, 0.87367832
850, 0.75796255, 0.76468586, 0.86093464, 0.87421096
854, 0.75788188, 0.76462336, 0.86138666, 0.87473966
858, 0.75779726, 0.76455691, 0.86183458, 0.8752645
862, 0.75770867, 0.76448657, 0.86227836, 0.87578551
866, 0.75761667, 0.7644124, 0.86271859, 0.87630275
870, 0.75752086, 0.76433444, 0.86315484, 0.87681627
874, 0.75742133, 0.76425273, 0.86358721, 0.87732612
878, 0.75731831, 0.76416734, 0.86401593, 0.87783234
882, 0.75721181, 0.76407831, 0.86444103, 0.87833499
886, 0.75710168, 0.76398568, 0.86486232, 0.87883411
890, 0.75698836, 0.76388951, 0.86528028, 0.87932974
894, 0.75687138, 0.76378984, 0.86569441, 0.87982194
898, 0.75675131, 0.76368671, 0.8661053, 0.88031074
902, 0.75662765, 0.76358017, 0.86651242, 0.88079619
906, 0.75650118, 0.76347027, 0.86691658, 0.88127834
910, 0.75637089, 0.76335705, 0.86731673, 0.88175723
914, 0.75623797, 0.76324055, 0.86771413, 0.8822329
918, 0.75610138, 0.76312081, 0.86810767, 0.88270538
922, 0.75596225, 0.76299787, 0.86849853, 0.88317474
926, 0.7558194, 0.76287179, 0.86888548, 0.88364099
930, 0.75567426, 0.76274259, 0.86927, 0.88410419
934, 0.75552566, 0.76261032, 0.86965088, 0.88456437
938, 0.75537445, 0.76247502, 0.87002899, 0.88502157
942, 0.75522003, 0.76233672, 0.87040371, 0.88547583
946, 0.75506324, 0.76219547, 0.87077592, 0.88592719
950, 0.75490293, 0.7620513, 0.87114443, 0.88637569
954, 0.75474024, 0.76190425, 0.87151038, 0.88682136
958, 0.7545748, 0.76175435, 0.87187345, 0.88726423
962, 0.75440646, 0.76160165, 0.87223342, 0.88770435
966, 0.7542354, 0.76144618, 0.87259051, 0.88814175
970, 0.75406226, 0.76128797, 0.87294537, 0.88857646
974, 0.75388595, 0.76112707, 0.87329688, 0.88900852
978, 0.75370726, 0.76096349, 0.87364583, 0.88943796
982, 0.75352634, 0.76079728, 0.87399242, 0.88986482
986, 0.75334261, 0.76062848, 0.874336, 0.89028912
990, 0.753156, 0.76045711, 0.87467653, 0.89071091
994, 0.75296768, 0.7602832, 0.8750152, 0.89113021
998, 0.75277651, 0.7601068, 0.87535084, 0.89154706
1002, 0.75258284, 0.75992792, 0.8756838, 0.89196148
1006, 0.75238702, 0.75974661, 0.87601445, 0.89237351
1010, 0.75218908, 0.75956289, 0.87634282, 0.89278317
1014, 0.75198847, 0.7593768, 0.87666833, 0.89319051
1018, 0.7517858, 0.75918836, 0.87699162, 0.89359554
1022, 0.75158092, 0.7589976, 0.87731254, 0.8939983
