# L = 5.4813049665329e-07 [m]
# T = 0 [K]
# omega_p = 9 [eV]
# omega_p*L/c = 25
# E = E_PFA (1+theta_1*L/R)
# theta1 = -1.7587447923956
#
# L/R, R, ldim, E*(L+R)/(hbar*c), E_PFA*(L+R)/(hbar*c), E/E_PFA, 1-E/E_PFA, E/E_PFA-1-theta1*L/R
0.1, 5.48130496653e-06, 90, -3.78009390064, -4.28146875202, 0.882896529107, 0.117103470893, 0.0587710083467
0.0914112171376, 5.99631548312e-06, 99, -4.53108478542, -5.08381248494, 0.891276930226, 0.108723069774, 0.0520459323329
0.0835601061858, 6.55971517597e-06, 108, -5.43087958949, -6.04025306283, 0.899114578976, 0.100885421024, 0.046075480582
0.076383310106, 7.17605057823e-06, 118, -6.50890944803, -7.18075483187, 0.906438055668, 0.0935619443324, 0.0407768045424
0.0698229134579, 7.85029540459e-06, 129, -7.80041568762, -8.54114423958, 0.913275255495, 0.0867247445049, 0.036075940929
0.0638259750328, 8.58789068826e-06, 142, -9.3475951807, -10.1642600462, 0.919653288896, 0.0803467111037, 0.0319068901048
0.0583441006274, 9.39478868915e-06, 155, -11.2009709411, -12.1013295398, 0.925598373652, 0.0744016263483, 0.0282107567973
0.0533330525115, 1.02775009275e-05, 169, -13.4210331925, -14.4136151916, 0.931135805559, 0.0688641944408, 0.0249350339265
0.0487523924375, 1.12431507306e-05, 185, -16.080202979, -17.1743849298, 0.936289890128, 0.0637101098715, 0.0220329064447
0.0445651553108, 1.2299530717e-05, 202, -19.2651825277, -20.4712696675, 0.941083911289, 0.0589160887107, 0.0194626461144
0.0407375508889, 1.34551656811e-05, 221, -23.079768612, -24.4090842393, 0.94554012702, 0.0544598729805, 0.0171870825003
0.0372386910996, 1.47193813872e-05, 242, -27.6482194083, -29.1132028793, 0.94967975605, 0.0503202439495, 0.0151731100975
0.0340403407803, 1.61023798261e-05, 265, -33.1192842498, -34.7335983001, 0.953522982664, 0.0464770173356, 0.013391254743
0.031116689825, 1.7615321544e-05, 290, -39.6710267789, -41.4496748836, 0.957088973322, 0.0429110266781, 0.0118152895082
0.028444144902, 1.92704157057e-05, 317, -47.5165971182, -49.4760521697, 0.960395889212, 0.0396041107877, 0.0104218809329
0.0260011390593, 2.10810186201e-05, 347, -56.9111406, -59.0694855503, 0.963460915052, 0.0365390849484, 0.00919028296855
0.0237679576838, 2.30617415239e-05, 379, -68.160066155, -70.5371478447, 0.96630028627, 0.0336997137296, 0.00810205807259
0.0217265794075, 2.52285684908e-05, 415, -81.6289400495, -84.2465394323, 0.968929294895, 0.0310707051047, 0.00714080328483
0.0198605306788, 2.75989854209e-05, 454, -97.7553324585, -100.637347279, 0.971362372935, 0.0286376270647, 0.00629197784081
0.0181547528234, 3.01921211478e-05, 496, -117.062988855, -120.235636203, 0.973613086373, 0.0263869136274, 0.00554266335805
0.0165954805242, 3.30289018057e-05, 543, -140.178792369, -143.670831154, 0.97569417009, 0.0243058299096, 0.00488138503969
0.015170130737, 3.6132219699e-05, 594, -167.853067081, -171.696039507, 0.977617582573, 0.0223824174269, 0.00429797100686
0.0138672011481, 3.95271180391e-05, 650, -200.983873584, -205.21237041, 0.979394532513, 0.0206054674866, 0.00378340031771
0.0126761773524, 4.32409930388e-05, 710, -240.646086526, -245.298037442, 0.981035515144, 0.018964484856, 0.00332967604998
0.0115874480044, 4.73038149942e-05, 777, -288.12619474, -293.243185556, 0.982550350465, 0.0174496495355, 0.00292971429935
0.010592227256, 5.17483701404e-05, 850, -344.963947349, -350.591568381, 0.98394821342, 0.0160517865799, 0.0025772379464
0.00968248385667, 5.66105252296e-05, 930, -413.002197165, -419.190423479, 0.985237672504, 0.0147623274963, 0.00226669056409
0.00885087634254, 6.19295169699e-05, 1017, -494.446550066, -501.250158306, 0.986426721015, 0.0135732789847, 0.00199315369082
0.00809069379206, 6.77482686579e-05, 1113, -591.936753373, -599.415776869, 0.987522811737, 0.0124771882633, 0.00175227731034
0.0073958016702, 7.41137365625e-05, 1217, -708.632127724, -716.852356794, 0.988532884084, 0.0114671159161, 0.00154021175691
0.00676059232381, 8.10772888527e-05, 1332, -848.313814885, -857.347340904, 0.989463399968, 0.0105366000315, 0.0013535565115
0.00617993972891, 8.86951201302e-05, 1457, -1015.50713609, -1025.43295123, 0.990320366508, 0.00967963349156, 0.00118930332398
0.00564915812457, 9.7028704909e-05, 1594, -1215.62803424, -1226.53268411, 0.991109368707, 0.00889063129296, 0.00104479614004
0.0051639641997, 0.000106145293704, 1743, -1455.15832426, -1467.13662395, 0.991835593568, 0.00816440643151, 0.000917688712824
0.0047204425275, 0.00011611845573, 1907, -1741.85542768, -1755.01124516, 0.992503855737, 0.00749614426273, 0.000805909450304
0.00431501396867, 0.000127028672591, 2086, -2085.00337459, -2099.45048722, 0.993118621888, 0.00688137811173, 0.000707630234772
0.00394440678842, 0.000138963987757, 2282, -2495.71318987, -2511.57622286, 0.993684032819, 0.00631596718065, 0.000621237717569
0.00360563025415, 0.00015202071705, 2497, -2987.28238402, -3004.69783649, 0.994203925512, 0.00579607448769, 0.0005453089451
0.0032959505008, 0.000166304225904, 2731, -3575.62517162, -3594.7425422, 0.994681852633, 0.00531814736659, 0.00047858841269
0.00301286846904, 0.000181929779639, 2988, -4279.78734781, -4300.77035823, 0.995121104205, 0.0048788957954, 0.000419970934696
0.0027540997383, 0.000199023473635, 3268, -5122.56243071, -5145.59039303, 0.995524719116, 0.0044752808837, 0.000368477688778
0.00251755609197, 0.000217723250895, 3575, -6131.22915879, -6156.49837476, 0.995895521376, 0.00410447862352, 0.000323260042788
0.00230132866579, 0.000238180015224, 3911, -7338.43378597, -7366.1592773, 0.996236099399, 0.00376390060072, 0.000283549205833
0.00210367254374, 0.000260558848993, 4279, -8783.24644436, -8813.66358895, 0.996548864807, 0.00345113519292, 0.000248687938282
0.00192299267682, 0.000285040345323, 4681, -10512.4248247, -10545.7913861, 0.99683603059, 0.00316396940985, 0.000218083946323
0.00175783101135, 0.00031182206544, 5120, -12581.9269139, -12618.5250951, 0.997099646676, 0.00290035332395, 0.000191222813169
0.0016068547227, 0.00034112013296, 5602, -15058.7211037, -15098.8598697, 0.997341602848, 0.00265839715249, 0.000167650223192
0.00146884545965, 0.000373170977963, 6128, -18022.9525368, -18066.970136, 0.997563642444, 0.00243635755564, 0.000146966747348
0.00134268951254, 0.000408233244943, 6703, -21570.535667, -21618.8023781, 0.997767373499, 0.00223262650063, 0.00012882168735
0.00122736882579, 0.000446589880023, 7333, -25816.2567364, -25869.1780236, 0.997954272566, 0.00204572743385, 0.000112901096851
0.00112195278242, 0.000488550414279, 8022, -30897.487221, -30955.5067853, 0.99812571105, 0.00187428895021, 9.89396631866e-05
0.00102559069412, 0.000534453461596, 8776, -36978.6269569, -37042.2305617, 0.998282943446, 0.00171705655393, 8.66957384823e-05
0.000937504936346, 0.000584669451224, 9600, -44256.4222473, -44326.1416271, 0.99842712726, 0.00157287274046, 7.59591841834e-05
0.00085698467304, 0.000639603617074, 10502, -52966.3298823, -53042.7471202, 0.998559327297, 0.00144067270275, 6.65446281257e-05
0.000783380120308, 0.000699699267882, 11489, -63390.1335857, -63473.8856812, 0.998680526731, 0.00131947326902, 5.82924380394e-05
0.000716097302788, 0.000765441364629, 12569, -75865.0582875, -75956.8425884, 0.998791625642, 0.00120837435847, 5.10580436534e-05
0.0005, 0.00109626099331, 18000, -155635.316004, -155767.617687, 0.999150647065, 0.000849352934555, 3.00194616427e-05
